,participant,day,block,trial_id,position,grasp,signal
0,1,1,1,1,2,3,"[[ 3.76349817e-05  1.98425078e-05  9.07169760e-06 ... -7.89036676e-06
  -1.49826537e-05 -1.43748375e-05]
 [ 2.48200813e-05  2.62004924e-05  2.57970714e-05 ...  2.36397518e-05
   2.26163229e-05  2.11052029e-05]
 [ 7.70358292e-06  9.89300042e-06  1.07674778e-05 ...  1.03989842e-05
   9.96852668e-06  9.72673752e-06]
 ...
 [-8.37383777e-06 -1.24599992e-05 -1.28278034e-05 ... -1.55725484e-05
  -1.43470406e-05 -1.06217649e-05]
 [-1.57952236e-05 -1.61320277e-05 -1.29005557e-05 ... -9.94938546e-06
  -9.96866675e-06 -1.09153243e-05]
 [-1.30936751e-05 -1.76599133e-05 -1.61400549e-05 ... -1.25840334e-05
  -1.46363518e-05 -1.61670978e-05]]"
1,1,1,1,2,2,3,"[[ 1.05379877e-05  1.15394896e-05  1.18090165e-05 ...  2.28420959e-05
   1.94325585e-05  2.00282320e-05]
 [ 1.74267807e-05  1.81171072e-05  1.61323278e-05 ...  2.51907750e-05
   2.45696920e-05  2.63745060e-05]
 [ 9.22877553e-06  9.82887741e-06  9.34532909e-06 ...  6.71826047e-06
   1.00900979e-05  1.02749045e-05]
 ...
 [-3.92861557e-06 -4.79590017e-06 -5.34747778e-06 ... -1.37622073e-05
  -1.30964218e-05 -1.29394830e-05]
 [ 8.97840664e-07 -3.89940487e-06 -5.86513715e-06 ... -1.91422569e-05
  -1.48182944e-05 -1.16775118e-05]
 [-3.42330935e-07 -5.52000813e-07 -2.34999584e-06 ... -1.44440255e-05
  -1.33859448e-05 -9.68062977e-06]]"
2,1,1,1,3,2,3,"[[ 1.69775649e-05  1.99370879e-05  2.18309942e-05 ...  4.06125037e-05
   3.63173822e-05  3.99458040e-05]
 [ 2.84807793e-05  3.06676811e-05  3.34765864e-05 ...  3.47174355e-05
   2.97571441e-05  2.65042308e-05]
 [ 7.70978477e-06  8.21505546e-06  1.02030035e-05 ...  1.01450187e-05
   9.77460877e-06  8.73040244e-06]
 ...
 [-1.17596946e-05 -1.06247817e-05 -8.40732446e-06 ... -8.83242046e-06
  -4.24140944e-06  5.02397916e-06]
 [-8.57351461e-06 -3.94097924e-06  7.69776307e-06 ... -1.10645897e-05
  -1.10913925e-05 -1.03961775e-05]
 [-7.99335248e-06 -6.67085214e-06 -6.38531083e-06 ... -7.06725405e-06
   3.59189698e-06  9.06763307e-06]]"
3,1,1,1,4,2,3,"[[ 3.6807487e-06  3.2587977e-06  2.3399070e-06 ...  5.8757534e-05
   4.7890135e-05  4.7152636e-05]
 [ 1.2401493e-05  1.4668970e-05  1.6580352e-05 ...  9.7454194e-06
   1.4665655e-05  2.0447167e-05]
 [ 1.0061866e-05  1.1900187e-05  1.3605899e-05 ...  1.1416911e-05
   1.1596369e-05  1.0043897e-05]
 ...
 [ 1.6680523e-06 -4.6562249e-07 -1.4699331e-06 ...  3.6996646e-06
   5.1716302e-06  6.8321219e-06]
 [-6.3733937e-06 -1.5540451e-06 -6.1308225e-07 ... -9.0317089e-06
  -9.7645134e-06 -1.0597658e-05]
 [-9.7009861e-06 -9.6207787e-06 -8.3627901e-06 ...  9.0599824e-06
   1.3525341e-05  1.6451770e-05]]"
4,1,1,1,5,2,3,"[[ 1.5383765e-05  1.8471881e-05  1.6300444e-05 ...  7.5738171e-05
   6.5521039e-05  3.9324441e-05]
 [ 3.1686053e-05  2.9977507e-05  2.6285885e-05 ...  2.3376608e-05
   2.4177425e-05  2.4014600e-05]
 [ 1.1814306e-05  1.1982353e-05  1.0849746e-05 ...  1.0064081e-05
   9.9663639e-06  9.2831242e-06]
 ...
 [-2.7820583e-06 -1.2526380e-06  1.2424252e-06 ... -3.6241508e-06
  -6.3609787e-06 -8.6242590e-06]
 [-9.9996432e-06 -8.8415291e-06 -6.7583551e-06 ... -1.6855611e-05
  -1.7457738e-05 -1.7975002e-05]
 [-8.3890263e-06 -7.9501469e-06 -6.6022812e-06 ... -1.3007483e-05
  -2.1794447e-05 -2.5263787e-05]]"
5,1,1,1,6,4,1,"[[-4.0954961e-05 -3.7203619e-05 -1.5032674e-05 ...  1.3305006e-05
   1.9270552e-05  2.1080479e-05]
 [ 2.9890311e-05  3.3207354e-05  3.6604029e-05 ...  1.6669541e-05
   1.5004834e-05  1.5058612e-05]
 [-6.8259405e-06 -6.1199730e-06 -5.7429443e-06 ...  1.1518759e-05
   1.0566667e-05  1.0396514e-05]
 ...
 [-5.8090895e-06 -9.8031687e-06 -1.0410851e-05 ... -1.0625096e-05
  -8.8527286e-06 -5.4099150e-06]
 [-1.1072193e-05 -1.1083862e-05 -8.6948730e-06 ... -1.0408466e-05
  -1.0330524e-05 -1.1002254e-05]
 [-1.3896754e-05 -1.7160479e-05 -1.7824190e-05 ... -1.1523806e-05
  -1.4350675e-05 -2.4028366e-05]]"
6,1,1,1,7,4,1,"[[ 2.5097963e-05  2.3993141e-05  2.3825929e-05 ...  7.8485946e-06
   1.0565063e-06 -1.4192399e-06]
 [ 2.9162766e-05  2.7874010e-05  2.7851971e-05 ...  1.8722260e-06
  -7.6147262e-06 -7.9752326e-06]
 [ 8.0273530e-06  9.3117715e-06  8.5208376e-06 ...  1.0787148e-05
   1.1700889e-05  1.3877859e-05]
 ...
 [-1.1103287e-05 -1.1052936e-05 -1.0657277e-05 ... -1.2289783e-05
  -1.1585088e-05 -1.2060955e-05]
 [-1.8519353e-05 -1.6699218e-05 -1.5532560e-05 ... -4.9527162e-06
  -6.8263876e-06 -1.0614322e-05]
 [-1.0753658e-05 -1.2105621e-05 -1.0950407e-05 ... -6.3192606e-06
  -1.8305761e-06  5.5266588e-07]]"
7,1,1,1,8,4,1,"[[ 1.19977885e-05  1.23946447e-05  1.13324468e-05 ...  4.94425731e-05
   4.66904930e-05  3.78670811e-05]
 [ 1.73452063e-05  1.55606176e-05  1.33186113e-05 ...  3.35360201e-05
   2.52081536e-05  1.66772152e-05]
 [ 7.18817182e-06  6.91222749e-06  5.66302106e-06 ...  9.58349483e-06
   1.04058236e-05  9.81314497e-06]
 ...
 [-6.14201645e-06 -7.35555204e-06 -8.08358345e-06 ... -1.04806259e-05
  -8.40161192e-06 -3.36852986e-06]
 [-9.49561581e-06 -9.37863297e-06 -1.00889019e-05 ... -3.91055710e-06
  -3.03086858e-06 -3.16031742e-06]
 [-9.27271412e-06 -9.89691216e-06 -1.00577663e-05 ... -5.77486071e-06
  -6.38242591e-06 -5.70547309e-06]]"
8,1,1,1,9,4,1,"[[ 1.24650778e-05  1.19311144e-05  8.89476451e-06 ...  8.02296563e-05
   7.62223717e-05  6.09173367e-05]
 [ 2.13176045e-05  2.23190455e-05  2.16230692e-05 ...  4.80343442e-05
   2.92534587e-05  1.02132572e-05]
 [ 8.31492889e-06  7.65213008e-06  7.49224318e-06 ...  1.61168155e-05
   1.10581586e-05  7.08592279e-06]
 ...
 [-1.10169540e-05 -1.03213115e-05 -9.85988390e-06 ...  8.63964306e-06
   3.68956262e-06  5.38295978e-07]
 [-1.02796339e-05 -8.97237624e-06 -8.85747249e-06 ... -6.01107331e-06
  -6.37095354e-06 -6.31127796e-06]
 [-1.02718250e-05 -1.19519354e-05 -1.26630839e-05 ...  1.59003284e-05
   6.70372174e-06  6.69184033e-07]]"
9,1,1,1,10,4,1,"[[ 4.4633189e-06  1.8881104e-06  4.6771245e-07 ...  1.0732153e-05
   1.2387009e-05  1.5426120e-05]
 [ 2.4067296e-05  2.6129697e-05  2.6313244e-05 ...  3.1663069e-05
   3.4235141e-05  3.8184942e-05]
 [ 8.4742014e-06  9.1286020e-06  9.0739777e-06 ...  1.5795833e-05
   1.4051111e-05  1.1992707e-05]
 ...
 [-9.6617532e-06 -8.6194304e-06 -7.0529436e-06 ... -1.1002484e-05
  -9.8526916e-06 -9.7675111e-06]
 [-1.1088080e-05 -1.1513782e-05 -1.3543449e-05 ... -7.5140319e-06
  -5.9945860e-06 -6.9075459e-06]
 [-1.1074865e-05 -1.1155566e-05 -1.2189812e-05 ... -8.8564557e-06
  -8.5265274e-06 -8.4081739e-06]]"
10,1,1,1,11,5,4,"[[ 9.2367773e-06  8.3722089e-06  7.4468016e-06 ...  3.0133961e-06
   8.7869385e-06  9.1899856e-06]
 [ 2.5181496e-05  2.6510559e-05  2.7681346e-05 ...  3.5441524e-05
   3.7582879e-05  3.8504877e-05]
 [ 1.1690092e-05  8.7623202e-06  1.1183021e-05 ...  2.0696079e-05
   2.0112415e-05  1.6233487e-05]
 ...
 [-5.5449304e-06 -6.3875996e-06 -1.0157982e-05 ... -7.2715911e-06
  -7.0524779e-06 -7.0468450e-06]
 [-1.1496095e-05 -1.2780905e-05 -1.3809570e-05 ... -1.2875768e-05
  -1.3084067e-05 -1.2505988e-05]
 [-4.9983960e-06 -1.2761816e-05 -1.6577464e-05 ... -3.1901865e-05
  -2.1925413e-05 -1.1166437e-05]]"
11,1,1,1,12,5,4,"[[ 1.10035789e-05  1.15605635e-05  1.14166969e-05 ... -7.82822735e-06
  -4.79151504e-06 -1.41418855e-06]
 [ 2.21461014e-05  2.32060447e-05  2.38637476e-05 ...  1.59728224e-05
   1.79989966e-05  1.83297088e-05]
 [ 7.74536784e-06  8.43985526e-06  7.30539841e-06 ...  1.22920819e-05
   1.12854696e-05  1.01294527e-05]
 ...
 [-1.00992829e-05 -1.01171981e-05 -1.12880434e-05 ... -6.76682248e-06
  -5.69564781e-06 -5.71807004e-06]
 [-1.38426203e-05 -1.19765245e-05 -1.10784486e-05 ... -3.10706491e-06
  -3.35947618e-07  7.04742433e-07]
 [-1.01288497e-05 -8.97337395e-06 -7.74203727e-06 ... -2.53397343e-06
  -5.47336913e-06 -9.20748698e-06]]"
12,1,1,1,13,5,4,"[[ 1.04112114e-05  1.24080188e-05  1.30280041e-05 ...  9.72803628e-06
   1.10053716e-05  1.04815535e-05]
 [ 1.99219812e-05  1.98028265e-05  1.95123885e-05 ...  2.78518455e-05
   3.33717944e-05  3.51779381e-05]
 [ 1.01998057e-05  1.10947740e-05  1.01698924e-05 ...  1.01592123e-05
   3.20489344e-05  5.45435505e-05]
 ...
 [-3.98743759e-06 -3.02885610e-06 -5.24260213e-06 ... -7.95499091e-06
  -8.90059619e-06 -8.48290711e-06]
 [-5.04758236e-06 -7.02938451e-06 -9.29866746e-06 ... -1.24184817e-05
  -1.24231901e-05 -1.12298085e-05]
 [-8.53468009e-06 -1.10746787e-05 -1.16756946e-05 ... -9.97287771e-06
  -8.94228469e-06 -9.03592263e-06]]"
13,1,1,1,14,5,4,"[[ 1.03571520e-05  1.21644271e-05  1.41240098e-05 ...  5.34972924e-06
   5.24378402e-06  6.38912616e-06]
 [ 2.24927280e-05  2.18964924e-05  2.18192472e-05 ...  1.16001120e-05
   1.07831420e-05  1.26335335e-05]
 [ 1.06955913e-05  1.04172641e-05  1.03961183e-05 ... -9.52538448e-06
  -9.42326642e-06 -3.28400938e-06]
 ...
 [-1.29612736e-05 -1.30734797e-05 -1.24422704e-05 ... -1.23532081e-05
  -1.13734850e-05 -9.96781182e-06]
 [-9.33923548e-06 -8.79081290e-06 -9.70605561e-06 ... -1.75668956e-05
  -1.51921458e-05 -1.28668298e-05]
 [-8.36339768e-06 -8.42138343e-06 -8.36368508e-06 ... -1.90093317e-06
  -1.75508831e-06 -5.68865789e-06]]"
14,1,1,1,15,5,4,"[[ 1.57780287e-05  1.57404265e-05  1.52206285e-05 ...  1.42869503e-05
   1.66621849e-05  1.86897123e-05]
 [ 2.21327100e-05  2.19193371e-05  1.97905592e-05 ...  2.03253167e-05
   2.04800508e-05  2.20353741e-05]
 [ 5.69815302e-06  6.34708249e-06  6.33486252e-06 ...  1.18241687e-05
   4.39453743e-06 -9.41152337e-07]
 ...
 [-1.68231259e-06 -1.67467749e-06 -1.97947816e-06 ... -5.73280477e-06
  -6.12680742e-06 -6.66494225e-06]
 [-1.03433081e-06 -4.02601881e-06 -7.67130769e-06 ... -6.60276874e-06
  -5.04127456e-06 -4.43527551e-06]
 [-9.06563491e-06 -8.83919711e-06 -1.00296356e-05 ... -7.66386165e-06
  -2.13141266e-06  1.74253614e-06]]"
15,1,1,1,16,6,5,"[[-3.06222755e-05 -2.02971078e-05 -1.00696052e-05 ...  2.46825712e-05
   2.06903005e-05  1.94866443e-05]
 [ 1.75342029e-05  1.53731671e-05  1.77764323e-05 ...  2.12746581e-05
   2.08756173e-05  2.50978774e-05]
 [ 1.03333305e-05  8.84488509e-06  9.05815159e-06 ...  5.28005239e-06
   8.06188382e-06  1.00947809e-05]
 ...
 [-8.15704061e-06 -7.80876053e-06 -4.36510391e-06 ... -1.43242221e-06
   2.53499979e-06  4.76675405e-06]
 [-2.61561945e-05 -2.10861926e-05 -8.43268663e-06 ... -8.01635724e-06
  -6.83378084e-06 -5.85223870e-06]
 [-7.17448984e-06 -1.57667102e-06  3.68120527e-06 ... -8.01969122e-07
   2.00975080e-07  1.99243505e-06]]"
16,1,1,1,17,6,5,"[[ 8.2337128e-06  8.9956629e-06  9.0572266e-06 ...  1.4379819e-05
   2.0136260e-05  2.5830994e-05]
 [ 2.0474887e-05  1.9811599e-05  1.9800911e-05 ...  2.8858105e-07
   2.9085222e-06  7.3306924e-06]
 [ 9.6759113e-06  9.1998118e-06  9.7090506e-06 ...  1.0412712e-05
   9.7319735e-06  8.8841425e-06]
 ...
 [-7.4433224e-06 -7.1050604e-06 -9.0377534e-06 ... -8.1939179e-06
  -9.2579903e-06 -8.6484897e-06]
 [-1.3458878e-05 -1.4363111e-05 -1.6437996e-05 ... -1.0473194e-05
  -1.1975184e-05 -1.3457174e-05]
 [-6.9485986e-06 -8.9330324e-06 -1.0382288e-05 ...  4.9587929e-06
   4.8143938e-06  7.1120630e-06]]"
17,1,1,1,18,6,5,"[[ 2.9701700e-05  3.0199726e-05  3.0968895e-05 ...  8.1656668e-05
   5.2741401e-05  2.4213354e-05]
 [ 2.7398430e-05  2.4089020e-05  1.7787186e-05 ...  5.4120883e-05
   5.1151503e-05  4.6332676e-05]
 [ 1.0138336e-05  1.0412783e-05  1.0697713e-05 ...  1.1233860e-05
   9.8834043e-06  9.0682342e-06]
 ...
 [-4.6225946e-06 -5.7049906e-06 -9.5720698e-06 ... -8.3882851e-06
  -8.9909590e-06 -1.1736462e-05]
 [-8.6121381e-06 -1.0403444e-05 -1.3604475e-05 ... -1.6070966e-06
   5.5381122e-07 -2.3322937e-06]
 [-5.0433027e-06 -4.3590321e-06 -2.4374667e-06 ...  5.0983003e-06
  -8.2513034e-06 -2.3465673e-05]]"
18,1,1,1,19,6,5,"[[ 8.26123414e-06  9.22847721e-06  8.60336149e-06 ...  5.61568668e-05
   6.89690423e-05  6.73311151e-05]
 [ 3.86407237e-06 -1.75227672e-06  1.44074602e-06 ...  7.41505719e-05
   5.90345335e-05  4.23403944e-05]
 [ 6.06659387e-06  4.71850308e-06  5.49851984e-06 ...  8.54347854e-06
   7.61114416e-06  9.61316618e-06]
 ...
 [-1.43586194e-05 -1.52908524e-05 -1.63351851e-05 ... -7.62651234e-06
  -8.78082301e-06 -9.49302739e-06]
 [-8.38413416e-06 -8.58653311e-06 -8.49708613e-06 ... -1.13913275e-05
  -1.12503221e-05 -1.01641735e-05]
 [-7.28092300e-06 -9.49479818e-06 -1.19798196e-05 ... -7.03620481e-06
  -2.08512301e-06 -3.83775813e-07]]"
19,1,1,1,20,6,5,"[[ 1.30740573e-05  1.24417293e-05  1.18056651e-05 ...  9.85007646e-05
   1.03754843e-04  1.04524108e-04]
 [ 1.98104317e-05  2.05821088e-05  2.14140928e-05 ...  3.95078278e-05
   3.68187139e-05  3.44337022e-05]
 [ 8.05724994e-06  8.50203014e-06  9.62110789e-06 ... -2.62469093e-05
  -4.59593393e-05 -5.49371543e-05]
 ...
 [-1.19530505e-05 -1.12503685e-05 -1.10556848e-05 ... -9.78622211e-06
  -1.02048871e-05 -1.06809466e-05]
 [-1.41706405e-05 -1.44745072e-05 -1.43957668e-05 ... -4.04885941e-06
  -2.81943267e-06 -3.22139977e-06]
 [-1.24168791e-05 -1.20533396e-05 -9.36776905e-06 ...  1.52429539e-05
   1.62340748e-05  1.71083466e-05]]"
20,1,1,1,21,8,2,"[[ 8.39579934e-06  1.07293963e-05  1.39499052e-05 ...  1.53923575e-05
   1.46742950e-05  1.49406287e-05]
 [ 4.12890840e-05  3.96582545e-05  3.57779354e-05 ...  2.66547922e-05
   2.85412752e-05  3.06820075e-05]
 [ 6.37808398e-06  6.89853914e-06  8.53683741e-06 ...  1.02019794e-05
   1.03867060e-05  9.83214977e-06]
 ...
 [-1.50878905e-05 -1.72051041e-05 -1.78540540e-05 ... -7.01621821e-06
  -1.19863435e-05 -1.20345421e-05]
 [-1.51017766e-05 -1.58540388e-05 -1.61479693e-05 ... -9.86088071e-06
  -9.75927651e-06 -1.10115488e-05]
 [-3.32267045e-05 -3.68819856e-05 -3.95716233e-05 ... -7.86740566e-06
  -2.37535801e-06  3.84189252e-06]]"
21,1,1,1,22,8,2,"[[ 2.0148856e-05  2.1137952e-05  2.0788548e-05 ...  9.4085071e-06
   5.4529442e-06  3.0613394e-06]
 [ 2.7185370e-05  2.7272043e-05  2.4957231e-05 ...  3.2711334e-05
   2.5951815e-05  1.9802943e-05]
 [ 8.7682120e-06  9.6540689e-06  9.3702201e-06 ...  8.9400501e-06
   8.4438007e-06  7.7099476e-06]
 ...
 [-3.0169615e-06 -1.7254132e-06 -2.3748912e-06 ... -8.4781504e-06
  -8.9760451e-06 -7.7394516e-06]
 [-7.0618639e-06 -4.0657751e-06 -1.8367494e-06 ... -3.3410745e-06
  -3.0012270e-06 -3.0412434e-06]
 [-6.7321280e-06 -5.5443529e-06 -4.3822110e-06 ... -1.7713797e-05
  -1.7126684e-05 -1.7448900e-05]]"
22,1,1,1,23,8,2,"[[ 1.1385583e-05  1.2853296e-05  1.4369344e-05 ...  9.7376524e-06
   9.3985027e-06  7.9890633e-06]
 [ 1.8766663e-05  2.1951766e-05  2.3918874e-05 ...  2.4389448e-05
   2.6107642e-05  2.4254592e-05]
 [ 7.4784411e-06  9.5219430e-06  9.9467889e-06 ...  1.1748824e-05
   1.1972897e-05  1.3013762e-05]
 ...
 [-8.0754544e-06 -7.5182093e-06 -8.6651480e-06 ... -3.6963322e-06
  -3.5775970e-06 -3.5096748e-06]
 [-1.6765271e-05 -1.5318479e-05 -1.6902091e-05 ... -1.3020965e-05
  -1.4760262e-05 -1.3369552e-05]
 [-8.6098571e-06 -1.0071377e-05 -1.1853588e-05 ... -1.1501406e-05
  -1.3332864e-05 -1.3745034e-05]]"
23,1,1,1,24,8,2,"[[ 4.4553161e-07 -6.6474695e-07  3.9653523e-06 ...  1.5796621e-05
   1.6056325e-05  1.6838951e-05]
 [ 2.6997739e-05  2.4560539e-05  2.7200842e-05 ...  2.6295605e-05
   3.0383339e-05  3.2272659e-05]
 [ 1.0831963e-05  1.2659509e-05  1.3929982e-05 ...  5.8138444e-06
   7.8296507e-06  9.1363845e-06]
 ...
 [-1.4648492e-05 -1.5114907e-05 -1.3797836e-05 ...  6.7427727e-06
  -6.6977134e-07 -6.4308656e-06]
 [-1.5446854e-05 -1.5288810e-05 -1.4368387e-05 ... -4.1233939e-06
  -7.5746048e-06 -9.4265124e-06]
 [-9.9482268e-06 -8.3353434e-06 -7.1860668e-06 ... -5.3488561e-06
  -7.3994065e-06 -1.1271762e-05]]"
24,1,1,1,25,8,2,"[[ 9.57237171e-06  1.57660925e-05  2.11386923e-05 ...  6.87383272e-06
   7.66993799e-06  9.36899960e-06]
 [ 1.14188688e-05  1.19659035e-05  1.50265669e-05 ...  2.60702909e-05
   2.77093113e-05  3.25473557e-05]
 [ 1.44900660e-05  1.56434489e-05  1.41280743e-05 ...  6.60647174e-06
   5.78042864e-06  5.70824386e-06]
 ...
 [-1.08235272e-05 -7.54162420e-06 -7.60166904e-06 ... -1.09544471e-05
  -1.01603928e-05 -1.10967785e-05]
 [-1.94300883e-05 -1.66874070e-05 -1.21267976e-05 ... -1.64723206e-05
  -1.46431285e-05 -1.37829857e-05]
 [-1.01273417e-05 -8.82623317e-06 -8.55666531e-06 ... -1.24901871e-05
  -1.11633672e-05 -1.17363470e-05]]"
25,1,1,1,26,2,5,"[[ 6.50737420e-05  1.48052422e-05 -4.32877969e-05 ...  1.01690035e-04
   5.99893137e-05  8.36952677e-06]
 [ 2.17056968e-05  1.74764828e-05  1.61732914e-05 ...  2.09973441e-05
  -3.20426352e-07 -2.07818066e-05]
 [ 1.43990783e-05  1.28360716e-05  1.14147933e-05 ... -7.50974823e-06
  -1.06052294e-05 -1.17699383e-05]
 ...
 [ 5.27784277e-06  2.12043165e-06 -4.18326817e-06 ... -9.06553123e-06
  -1.03994762e-05 -1.07852820e-05]
 [-8.44890565e-06 -1.64346020e-05 -2.32245602e-05 ... -1.19611032e-05
  -1.40655984e-05 -1.42441995e-05]
 [ 3.57466115e-06 -7.48310367e-06 -1.30091184e-05 ... -9.84564485e-06
  -9.92302921e-06 -1.38208497e-05]]"
26,1,1,1,27,2,5,"[[ 1.09678040e-05  9.47857461e-06  8.50398283e-06 ... -8.65065012e-05
  -1.08853063e-04 -1.17669864e-04]
 [ 1.95953271e-05  1.88265676e-05  1.86976740e-05 ...  2.08405163e-05
   1.26138066e-05  8.51478399e-06]
 [ 8.79192430e-06  7.99616282e-06  7.52261167e-06 ...  1.13966580e-05
   1.01305577e-05  7.56010786e-06]
 ...
 [-1.40871252e-05 -1.21797029e-05 -1.17685468e-05 ... -1.91323197e-05
  -2.56009280e-05 -2.89178352e-05]
 [-1.71973370e-05 -1.89391376e-05 -2.15576347e-05 ... -1.51001641e-05
  -1.93474953e-05 -2.08555084e-05]
 [-4.99298994e-06 -5.67187408e-06 -6.18745889e-06 ... -2.98022005e-05
  -6.70988593e-05 -9.25147979e-05]]"
27,1,1,1,28,2,5,"[[ 1.47345272e-05  1.57724608e-05  1.80119969e-05 ... -3.90289933e-05
  -5.80218548e-05 -5.93924960e-05]
 [ 1.90484079e-05  1.98149464e-05  2.03175332e-05 ...  2.02854862e-05
   1.78078517e-05  1.88163722e-05]
 [ 1.02523527e-05  1.15255680e-05  1.20828981e-05 ...  2.26600932e-05
   2.18048044e-05  2.20587572e-05]
 ...
 [-1.01871265e-05 -1.37447450e-05 -1.39310123e-05 ... -1.62854139e-05
  -1.78004684e-05 -1.93437736e-05]
 [-7.17922740e-06 -9.07575759e-06 -9.64638457e-06 ... -1.66615682e-05
  -1.84674864e-05 -2.32884850e-05]
 [-8.40194298e-06 -7.49146602e-06 -7.31733189e-06 ... -2.94002621e-05
  -3.59222795e-05 -4.13778798e-05]]"
28,1,1,1,29,2,5,"[[ 9.58282271e-06  1.00349898e-05  9.73520036e-06 ... -1.45433209e-04
  -7.88631078e-05  5.06248512e-07]
 [ 2.26448956e-05  2.30828155e-05  2.21657392e-05 ...  4.42957535e-05
   3.61560888e-05  2.74386166e-05]
 [ 1.24706003e-05  1.08854110e-05  9.11475672e-06 ...  2.34859872e-05
   2.15798827e-05  2.03131731e-05]
 ...
 [-1.34556085e-05 -1.55549733e-05 -1.81163268e-05 ... -7.79570928e-06
  -8.83568737e-06 -8.80731841e-06]
 [-1.53017554e-05 -1.58043549e-05 -1.37454708e-05 ... -5.19775358e-06
  -8.58923522e-06 -1.13177075e-05]
 [-1.13219521e-05 -9.94465427e-06 -8.37595417e-06 ... -6.65896441e-05
  -5.54266517e-05 -3.66319146e-05]]"
29,1,1,1,30,2,5,"[[ 1.44623082e-05  1.12874714e-05  1.06475718e-05 ...  1.18726957e-05
  -1.44874957e-06  6.56768066e-07]
 [ 1.94559925e-05  1.97821228e-05  1.93843043e-05 ...  1.71117026e-05
   2.14385946e-05  2.48365213e-05]
 [ 8.39266340e-06  8.42942063e-06  8.80156131e-06 ...  1.48464414e-06
   3.84875079e-07  9.92695846e-07]
 ...
 [-1.24395665e-05 -9.61615297e-06 -8.51613549e-06 ... -1.62928391e-05
  -1.52670618e-05 -1.37583720e-05]
 [-5.01825843e-06 -5.72122872e-06 -5.69262193e-06 ... -1.94620789e-05
  -1.61355856e-05 -1.14482682e-05]
 [-7.74635009e-06 -7.06436549e-06 -7.62955460e-06 ... -3.37059510e-06
  -4.23515939e-06 -7.68645987e-06]]"
30,1,1,1,31,4,4,"[[ 5.4450297e-06  1.0387133e-05  1.5106561e-05 ... -7.7425881e-07
  -6.4370721e-07  2.9415878e-06]
 [ 2.0033869e-05  2.3480812e-05  2.6897307e-05 ...  7.0394181e-06
   5.6110930e-06  6.8419704e-06]
 [ 1.0430595e-05  1.0717133e-05  1.1696141e-05 ...  5.2480696e-06
   1.0916837e-05  1.8072999e-05]
 ...
 [-8.2302522e-06 -8.4048925e-06 -8.4542935e-06 ... -8.3829291e-06
  -8.5505390e-06 -6.0068264e-06]
 [-1.5008400e-05 -1.3754886e-05 -1.1692102e-05 ... -6.2710997e-06
  -5.8530163e-06 -4.5218544e-06]
 [ 4.2958754e-06  3.6887718e-06  3.8451544e-06 ... -8.8579091e-06
  -7.7450459e-06 -5.0227231e-06]]"
31,1,1,1,32,4,4,"[[ 1.04086275e-05  1.01074975e-05  8.62313846e-06 ...  6.80884705e-06
  -3.52141865e-06 -1.60468026e-05]
 [ 1.99547740e-05  2.14419179e-05  2.20472266e-05 ...  1.70653784e-05
   1.33119938e-05  1.19828255e-05]
 [ 7.81892595e-06  5.84087684e-06  6.72556553e-06 ...  2.61652149e-05
   4.32912930e-05  5.30515536e-05]
 ...
 [-9.14046086e-06 -9.28496138e-06 -9.55046289e-06 ... -1.12468560e-05
  -9.72182897e-06 -1.10859319e-05]
 [-9.19785907e-06 -1.05653316e-05 -1.28868332e-05 ... -1.42797207e-05
  -1.36602494e-05 -1.40149086e-05]
 [-1.08499771e-05 -8.62963498e-06 -6.81993424e-06 ... -2.64698174e-05
  -2.75359325e-05 -2.61071418e-05]]"
32,1,1,1,33,4,4,"[[ 1.02231506e-05  1.14058912e-05  9.89852833e-06 ... -4.00509771e-06
  -1.14809527e-05 -1.05299141e-05]
 [ 2.01920702e-05  1.94606291e-05  1.85516565e-05 ...  3.27983325e-05
   2.86886807e-05  2.56323910e-05]
 [ 7.26264761e-06  5.72404588e-06  6.43273461e-06 ...  2.54027527e-05
   2.82601122e-05  2.89548589e-05]
 ...
 [-7.19153832e-06 -7.72619023e-06 -1.06134657e-05 ... -1.13775759e-05
  -1.06324114e-05 -8.84541623e-06]
 [-9.15252804e-06 -8.71588600e-06 -7.73735792e-06 ... -1.14400900e-05
  -1.10904803e-05 -1.24029748e-05]
 [-8.90973661e-06 -1.10740511e-05 -1.04505725e-05 ... -1.04246064e-05
  -9.46011460e-06 -7.63077242e-06]]"
33,1,1,1,34,4,4,"[[ 1.30296930e-05  1.22627334e-05  1.19833057e-05 ...  1.39928052e-05
   1.48736035e-05  1.51145214e-05]
 [ 2.18362165e-05  2.21762621e-05  2.18017085e-05 ...  3.39155413e-05
   3.61243765e-05  3.66084168e-05]
 [ 1.07083279e-05  1.06274865e-05  1.19707074e-05 ...  3.06691873e-05
   2.67513096e-05  1.69298837e-05]
 ...
 [-1.11579566e-05 -1.15930688e-05 -1.01958685e-05 ... -7.26006738e-06
  -6.54390305e-06 -5.76813318e-06]
 [-1.13897886e-05 -1.10661149e-05 -9.26960365e-06 ... -3.02735657e-06
  -3.01526006e-06 -3.62162177e-06]
 [-8.84400924e-06 -6.45877071e-06 -3.92094171e-06 ...  2.91434867e-06
   6.73058457e-06  9.52075607e-06]]"
34,1,1,1,35,4,4,"[[ 1.46528891e-05  1.19158540e-05  9.28123518e-06 ...  1.38689093e-05
   1.17275504e-05  9.95095616e-06]
 [ 2.14732936e-05  2.03816580e-05  1.90496721e-05 ...  8.33042122e-06
   8.75933949e-07 -6.03225772e-06]
 [ 8.61289027e-06  1.09970460e-05  1.19384868e-05 ...  4.32175148e-06
   3.81153063e-06  4.39221549e-06]
 ...
 [-1.01830856e-05 -8.69675750e-06 -1.05423242e-05 ... -2.96558687e-06
  -2.77932486e-06 -5.26723124e-06]
 [-1.50992910e-05 -1.41477258e-05 -1.30111757e-05 ... -5.41120380e-06
  -3.39978806e-06 -5.69195072e-06]
 [-1.19863280e-05 -1.25546003e-05 -1.29568625e-05 ...  3.60836552e-08
  -3.08187509e-06 -7.04739114e-06]]"
35,1,1,1,36,5,2,"[[ 2.3248587e-05  2.8353532e-05  3.5585868e-05 ...  1.7254044e-05
   8.9272708e-06  4.9645414e-06]
 [-3.1424795e-05 -2.7747898e-05 -8.3633768e-06 ...  1.0425243e-05
   9.1994389e-06  1.2644144e-05]
 [ 1.0955302e-05  8.8967890e-06  7.9292668e-06 ...  8.1617254e-06
   7.7297527e-06  8.3068207e-06]
 ...
 [-7.7236746e-06 -8.9814348e-06 -9.7400225e-06 ... -1.0207820e-05
  -8.6721184e-06 -7.2236353e-06]
 [-1.5766342e-05 -1.3560396e-05 -1.1662064e-05 ... -1.2890100e-05
  -1.1435321e-05 -9.3121480e-06]
 [-1.0404673e-05 -6.9167868e-06 -3.9124711e-06 ...  8.6076070e-06
   6.4703509e-06  3.9094639e-06]]"
36,1,1,1,37,5,2,"[[ 8.3689692e-06  9.7531220e-06  1.2986433e-05 ...  1.8168392e-05
   1.7567319e-05  1.5043107e-05]
 [ 1.2558891e-05  1.6444419e-05  2.0391621e-05 ...  2.0949446e-05
   2.1049837e-05  2.3216067e-05]
 [ 4.7158774e-06  5.9469094e-06  7.4003751e-06 ...  8.1450789e-06
   7.3747810e-06  5.1670681e-06]
 ...
 [-1.0478120e-05 -1.1078711e-05 -1.1077406e-05 ...  3.2439850e-06
   5.6979015e-06  5.7900884e-06]
 [-8.5059592e-06 -1.2588778e-05 -1.4854821e-05 ... -9.3132621e-06
  -1.1713860e-05 -1.6168242e-05]
 [-1.4202132e-05 -1.5557609e-05 -1.6293392e-05 ...  1.4734172e-05
   1.8893179e-05  1.8260114e-05]]"
37,1,1,1,38,5,2,"[[ 2.9212690e-05  2.6338563e-05  1.7636401e-05 ...  6.1715605e-06
  -5.7496145e-06 -1.8777504e-05]
 [ 3.7262824e-05  3.9565330e-05  4.2110896e-05 ... -1.1641988e-05
   1.8142624e-06  8.3789400e-06]
 [ 1.2072385e-05  1.2989362e-05  1.1708379e-05 ...  4.7753965e-06
   1.6530225e-06  3.0038423e-06]
 ...
 [-3.0158601e-06 -4.4382405e-06 -4.5877432e-06 ... -1.4738089e-05
  -1.6957611e-05 -1.5127836e-05]
 [-1.1769017e-05 -1.2250042e-05 -1.1104426e-05 ... -1.9559287e-05
  -2.1685659e-05 -2.0468116e-05]
 [-7.7200930e-06 -9.6536842e-06 -8.9246532e-06 ... -4.4186541e-05
  -4.1093637e-05 -2.9896608e-05]]"
38,1,1,1,39,5,2,"[[ 1.41252585e-05  1.28848405e-05  1.12177668e-05 ...  1.04020592e-05
   1.44231399e-05  2.07246994e-05]
 [ 3.85633502e-05  4.34390386e-05  4.41380580e-05 ...  3.05072044e-05
   2.98464729e-05  2.93877019e-05]
 [ 9.04937315e-06  9.93265166e-06  8.79650815e-06 ...  1.08596960e-05
   9.28868485e-06  6.38913389e-06]
 ...
 [-1.14008299e-05 -1.24295275e-05 -1.21150761e-05 ... -1.30800854e-05
  -1.35500622e-05 -1.27124713e-05]
 [-2.62031990e-05 -2.16710232e-05 -1.39448221e-05 ... -1.08797003e-05
  -5.92544620e-06 -1.51543031e-06]
 [-9.06062269e-06 -8.54697737e-06 -1.00965899e-05 ... -1.84825549e-05
  -1.91130021e-05 -2.23511815e-05]]"
39,1,1,1,40,5,2,"[[-1.17064728e-05  2.28678482e-06  8.95046651e-06 ...  2.39489509e-05
   1.54000718e-05  9.76321917e-06]
 [ 2.46895142e-05  2.75559178e-05  2.63843485e-05 ...  3.78572222e-05
   3.43696156e-05  3.45596200e-05]
 [ 1.26330106e-05  1.52564853e-05  1.57748727e-05 ...  1.03215443e-05
   1.03424272e-05  1.04332557e-05]
 ...
 [-1.09473085e-05 -1.16534866e-05 -9.31863360e-06 ... -8.81565666e-06
  -1.02758841e-05 -1.10935471e-05]
 [-5.59905584e-06 -2.80488234e-06 -1.15535954e-07 ... -2.83755389e-06
  -5.72951512e-06 -6.05593550e-06]
 [-6.89433637e-06 -9.87832391e-06 -1.01877540e-05 ... -1.45006952e-05
  -1.51128597e-05 -1.30941198e-05]]"
40,1,1,1,41,6,3,"[[ 1.63819641e-05  3.54611366e-05  4.29125685e-05 ... -3.90771265e-06
  -1.94528493e-05 -2.41314647e-05]
 [-5.97747130e-05 -4.29064967e-05 -1.56170063e-05 ...  2.61498135e-05
   2.69617394e-05  3.03913785e-05]
 [ 9.73954593e-06  9.91672550e-06  1.14126397e-05 ...  1.92118550e-05
   1.66809841e-05  1.27646554e-05]
 ...
 [-1.14001687e-05 -1.09443254e-05 -9.72477028e-06 ... -9.08210677e-06
  -1.03829825e-05 -1.10988694e-05]
 [-1.77650727e-05 -1.95276298e-05 -1.97852423e-05 ... -9.80015284e-06
  -1.08596641e-05 -1.10717137e-05]
 [-5.72549698e-06 -1.37926395e-06  9.96483436e-07 ... -6.02613545e-06
  -2.56693556e-06 -2.20897527e-06]]"
41,1,1,1,42,6,3,"[[ 2.4988820e-05  2.3878520e-05  2.2602308e-05 ...  5.1906332e-05
   4.4803881e-05  4.6870646e-05]
 [ 1.7713661e-05  1.9949994e-05  2.0926620e-05 ...  1.6389204e-05
   1.9331848e-05  2.3397171e-05]
 [ 6.8973227e-06  8.7609351e-06  7.9527508e-06 ...  8.7764793e-06
   8.7544404e-06  8.6278924e-06]
 ...
 [-1.0481025e-05 -8.6240925e-06 -6.3796738e-06 ... -2.3205084e-05
  -2.1784510e-05 -2.0221352e-05]
 [-1.0308799e-05 -4.6342998e-06 -2.6102712e-06 ... -1.5871263e-05
  -1.4719184e-05 -1.4004758e-05]
 [-6.3129983e-06 -7.4088275e-06 -8.6251202e-06 ... -1.5678017e-05
  -1.7214223e-05 -1.8662176e-05]]"
42,1,1,1,43,6,3,"[[ 1.1167384e-05  4.7115682e-06 -3.6329307e-06 ...  4.3033124e-06
  -2.1801814e-05 -2.3399094e-05]
 [ 2.9529974e-05  2.4835155e-05  1.3741156e-05 ...  2.2961474e-05
   2.3808921e-05  2.6200438e-05]
 [ 4.7512162e-06  7.6947917e-06  1.0718964e-05 ...  8.6364871e-06
   7.7046589e-06  9.0003332e-06]
 ...
 [ 4.0246264e-06 -3.5138808e-07 -3.9604770e-06 ... -7.1131399e-06
  -6.3923549e-06 -7.1815348e-06]
 [-9.1420461e-06 -8.3919422e-06 -8.8387478e-06 ... -1.6515460e-05
  -1.5083338e-05 -1.4386420e-05]
 [-2.9384646e-06 -4.3664545e-06 -6.5162526e-06 ... -1.1091187e-05
  -9.3933904e-06 -6.9168077e-06]]"
43,1,1,1,44,6,3,"[[ 4.68417329e-06  7.38992048e-06  1.54045792e-05 ...  4.06066065e-05
   4.58329887e-05  4.84502270e-05]
 [ 3.49762267e-05  3.82671715e-05  4.19496100e-05 ...  3.03166635e-05
   3.48647955e-05  3.82290564e-05]
 [ 1.42916278e-05  1.29428199e-05  1.17545105e-05 ...  9.71470581e-06
   8.49271873e-06  8.44151418e-06]
 ...
 [-1.13366223e-05 -9.93007507e-06 -8.39044242e-06 ...  6.78705692e-06
   5.22997198e-06  1.79641449e-06]
 [-6.15797126e-06 -2.65921062e-06 -4.34612957e-06 ... -9.49960213e-06
  -9.44899512e-06 -9.05327215e-06]
 [-3.91591448e-06 -4.28855401e-06 -5.70195516e-06 ...  3.16488513e-05
   2.50740377e-05  1.42098534e-05]]"
44,1,1,1,45,6,3,"[[ 1.13500864e-05  1.69004343e-05  2.39511974e-05 ... -6.18173581e-05
  -8.14453815e-05 -7.16734212e-05]
 [ 2.49520072e-05  2.98586074e-05  3.30902549e-05 ...  3.83408405e-07
  -2.07741614e-05 -4.29176580e-05]
 [ 1.04288602e-05  1.00501820e-05  9.57161410e-06 ...  1.38853475e-05
   1.24170647e-05  1.07901060e-05]
 ...
 [-6.87975353e-06 -6.62393313e-06 -6.72887563e-06 ... -3.30850230e-06
  -5.70825569e-06 -9.56876829e-06]
 [-7.14122280e-06 -9.52205392e-06 -1.19526467e-05 ... -1.41459777e-05
  -1.62075266e-05 -1.83978209e-05]
 [-6.57023156e-06 -8.15661770e-06 -6.84340239e-06 ...  6.33979562e-06
  -4.35643915e-06 -1.29897226e-05]]"
45,1,1,1,46,8,1,"[[ 1.87472615e-05  1.64358971e-05  1.11876125e-05 ...  1.39989279e-05
   1.64276989e-05  1.49476327e-05]
 [-6.80931498e-06 -2.04381740e-05 -3.25896654e-05 ...  1.27892336e-05
   1.10896535e-05  1.66385635e-05]
 [-4.39666792e-06 -4.70325631e-06 -6.07074890e-06 ...  1.31652541e-05
   1.44313663e-05  1.57760369e-05]
 ...
 [-1.19353417e-05 -1.64686062e-05 -1.76929552e-05 ... -7.87186673e-06
  -1.24006419e-05 -1.23666350e-05]
 [-7.08966718e-06 -8.38446886e-06 -1.01091446e-05 ... -9.00580835e-06
  -7.37547953e-06 -7.13516056e-06]
 [ 2.93514859e-05  1.71742231e-05  5.03158253e-06 ... -1.65930342e-05
  -2.04670687e-05 -2.15282380e-05]]"
46,1,1,1,47,8,1,"[[ 2.16121043e-05  1.72350483e-05  1.32923351e-05 ...  5.02132707e-06
   9.50713365e-06  1.66480750e-05]
 [ 1.90885530e-05  1.30884846e-05  1.07928454e-05 ...  2.55291652e-05
   2.52370992e-05  2.62325757e-05]
 [ 1.19638753e-05  1.28740994e-05  1.27885205e-05 ...  1.04076626e-05
   1.06657053e-05  9.40676182e-06]
 ...
 [-8.22121638e-06 -7.29944486e-06 -6.05884225e-06 ... -9.74052182e-06
  -9.73004262e-06 -9.81471112e-06]
 [-1.22034025e-05 -1.41966739e-05 -1.51172462e-05 ... -1.54321442e-05
  -1.57864233e-05 -1.57692448e-05]
 [-9.42746101e-06 -9.03747605e-06 -9.61016212e-06 ...  2.35776361e-06
   7.81860365e-07 -1.59267256e-06]]"
47,1,1,1,48,8,1,"[[ 3.2781125e-05  3.0860341e-05  2.9942077e-05 ...  2.8716213e-06
  -2.6623263e-06 -1.2069840e-05]
 [ 1.9014926e-05  1.8473675e-05  1.9047546e-05 ...  1.7001828e-05
   1.5789768e-05  9.3766139e-06]
 [ 6.4944052e-06  6.8945769e-06  7.3520955e-06 ...  3.2328069e-05
   2.8114984e-05  2.4344021e-05]
 ...
 [-9.3856479e-06 -9.6734057e-06 -1.0910994e-05 ... -9.5504902e-06
  -7.9497313e-06 -8.9801115e-06]
 [-1.5990392e-05 -1.6978636e-05 -1.7112832e-05 ... -1.9582472e-05
  -2.1588348e-05 -2.2496295e-05]
 [-1.0411437e-05 -1.0030415e-05 -8.5510028e-06 ... -1.3010745e-05
  -1.2430214e-05 -1.0851279e-05]]"
48,1,1,1,49,8,1,"[[ 1.06806065e-05  9.05760226e-06  9.59017234e-06 ...  9.80277764e-06
   4.17044203e-06  4.69946684e-07]
 [ 1.65304773e-05  1.74459037e-05  2.08470519e-05 ...  1.17484788e-05
   3.57805720e-06 -2.13729209e-06]
 [ 1.07116311e-05  1.04013452e-05  1.13034448e-05 ...  1.04002511e-05
   1.09701714e-05  1.16308556e-05]
 ...
 [-7.09687765e-06 -7.74587897e-06 -7.77066725e-06 ... -6.90619436e-06
  -7.63770458e-06 -6.16931129e-06]
 [-1.61612716e-05 -1.58063031e-05 -1.35206001e-05 ... -1.22067240e-05
  -9.58708006e-06 -7.72771909e-06]
 [-8.99364022e-06 -8.39056702e-06 -6.16550415e-06 ... -2.13532758e-06
  -6.57452301e-06 -1.06413972e-05]]"
49,1,1,1,50,8,1,"[[ 2.96773505e-05  2.60633860e-05  2.62303038e-05 ...  3.40680435e-06
   3.01034106e-06  3.62654418e-06]
 [ 1.16796618e-05  1.06299431e-05  1.24883027e-05 ...  1.18116177e-05
   9.31040631e-06  8.37349580e-06]
 [ 1.10025094e-05  1.16731844e-05  1.11191484e-05 ... -3.39288732e-07
  -3.32144538e-07  1.80842306e-07]
 ...
 [-9.38433277e-06 -8.59732245e-06 -7.37213168e-06 ... -6.44322836e-06
  -4.82791984e-06 -2.26958878e-06]
 [-2.18912446e-05 -2.29388970e-05 -2.36827946e-05 ... -1.20357909e-05
  -1.24313829e-05 -1.40447555e-05]
 [-9.96346080e-06 -6.83424878e-06 -4.14300303e-06 ... -2.20834281e-05
  -2.45314513e-05 -2.26604116e-05]]"
50,1,1,1,51,2,4,"[[ 1.3080796e-05  1.3252206e-05  1.4196561e-05 ...  4.3695986e-06
   2.3897680e-06 -6.7060448e-08]
 [ 2.0209847e-05  2.0891788e-05  2.0921187e-05 ...  1.3753711e-05
   1.5482252e-05  1.5773830e-05]
 [ 4.0657237e-06  7.6317083e-06  9.9643248e-06 ...  1.2395787e-05
   1.3040166e-05  1.2772312e-05]
 ...
 [-6.5913227e-06 -8.3958394e-06 -8.6119753e-06 ... -1.5551537e-05
  -1.7488093e-05 -2.0173777e-05]
 [-1.5712065e-05 -1.4802976e-05 -1.4218641e-05 ... -1.1856553e-05
  -6.7770079e-06 -5.6854865e-06]
 [-2.4553603e-06 -3.6569043e-06 -5.2511841e-06 ... -2.1337935e-05
  -3.1288684e-05 -3.7986840e-05]]"
51,1,1,1,52,2,4,"[[ 1.2387814e-05  1.3753685e-05  1.4145066e-05 ...  7.8297990e-06
   8.3933310e-06  8.6144710e-06]
 [ 1.6843247e-05  1.5761168e-05  1.5868716e-05 ...  1.2467434e-05
   1.7798242e-05  1.9345975e-05]
 [ 1.2874185e-05  1.3085660e-05  1.2578682e-05 ...  7.5622070e-06
   9.0673175e-06  8.8747283e-06]
 ...
 [-5.6618137e-06 -6.3830498e-06 -5.6306194e-06 ...  9.0669864e-06
   7.7234281e-06  6.8272057e-06]
 [-1.1527735e-05 -7.7345749e-06 -5.4044904e-06 ... -8.7805711e-06
  -5.7043349e-06 -7.7896566e-06]
 [-3.7017817e-06 -3.6836313e-06 -4.5189240e-06 ...  5.2634455e-06
   2.6919915e-06  3.0178677e-07]]"
52,1,1,1,53,2,4,"[[ 1.17281243e-05  1.26621535e-05  1.41131432e-05 ...  9.73573424e-06
   9.06611785e-06  9.50738831e-06]
 [ 2.00693630e-05  1.89509956e-05  1.73853277e-05 ...  1.33693047e-05
   1.34117490e-05  1.36297831e-05]
 [ 1.48160061e-05  1.42057597e-05  1.29908176e-05 ...  3.03163233e-06
   3.90253308e-06  6.45635191e-06]
 ...
 [-8.94723689e-06 -1.05168638e-05 -1.05573563e-05 ... -4.32510114e-06
  -3.21391622e-06 -3.57327531e-06]
 [-1.04830233e-05 -1.19653605e-05 -1.13867563e-05 ... -1.53494311e-05
  -1.04076826e-05 -2.67905989e-06]
 [-1.02982904e-05 -9.32555213e-06 -9.54710322e-06 ...  1.38415480e-05
   1.62123597e-05  1.99902825e-05]]"
53,1,1,1,54,2,4,"[[ 7.03466048e-06  9.73919850e-06  1.05114195e-05 ...  1.40147295e-05
   1.57433224e-05  1.59607716e-05]
 [ 2.39921592e-05  2.24896448e-05  2.35711377e-05 ...  2.53228991e-05
   2.38070988e-05  2.39733890e-05]
 [ 7.18437013e-06  1.10766268e-05  1.47198489e-05 ...  6.93839957e-06
   3.70535781e-06  3.45716830e-06]
 ...
 [ 6.15331282e-06  3.70396378e-06  2.19552612e-06 ...  7.04478225e-07
   1.01006549e-06 -1.22467588e-06]
 [-1.35131477e-05 -1.40863967e-05 -1.37778297e-05 ... -5.54699045e-06
  -7.38852168e-06 -8.68237021e-06]
 [-4.73167074e-06 -3.33076127e-06 -3.04874015e-06 ... -2.95713630e-06
  -5.01655859e-06 -5.46289129e-06]]"
54,1,1,1,55,2,4,"[[ 9.3965346e-06  8.2138349e-06  8.0124173e-06 ...  3.0307367e-06
   5.2406485e-06  7.1352279e-06]
 [ 1.8675739e-05  1.7509923e-05  1.7477403e-05 ...  2.2486973e-05
   2.3833891e-05  2.3649565e-05]
 [ 9.0395615e-06  8.4937019e-06  8.4405337e-06 ...  2.3385901e-05
   2.4576801e-05  2.2355527e-05]
 ...
 [-1.4563775e-05 -1.5050244e-05 -1.5273656e-05 ...  1.3751326e-05
   1.5410307e-05  1.4842231e-05]
 [-1.4417758e-05 -1.4452194e-05 -1.4417994e-05 ... -1.1535151e-05
  -8.8415482e-06 -6.6098032e-06]
 [-1.2419280e-05 -1.1530849e-05 -9.8488745e-06 ... -7.4972622e-06
  -7.3487040e-06 -9.0190269e-06]]"
55,1,1,1,56,4,5,"[[-2.76544033e-05 -1.67770049e-05 -1.41384930e-06 ... -1.03694554e-04
  -8.92052194e-05 -4.33973000e-05]
 [ 2.27069704e-05  2.27241435e-05  2.20384827e-05 ...  1.37459756e-05
   1.59729534e-05  1.73672743e-05]
 [ 1.14962713e-05  1.17774298e-05  1.42479339e-05 ...  7.02844636e-06
   1.03397688e-05  1.22559895e-05]
 ...
 [-1.06264761e-05 -1.06344814e-05 -7.50601703e-06 ... -6.38450547e-06
  -1.58006696e-06  2.60726711e-06]
 [-6.75942329e-06  1.80069253e-06  8.83820121e-06 ... -1.30995868e-05
  -1.19704282e-05 -1.07874330e-05]
 [-1.71199663e-05 -1.32208370e-05 -8.95274934e-06 ... -9.06278547e-06
  -1.48598292e-05 -1.90658502e-05]]"
56,1,1,1,57,4,5,"[[ 1.03968450e-05  1.06393009e-05  1.16617584e-05 ...  4.19259122e-05
   5.50743061e-05  5.75610393e-05]
 [ 2.18158930e-05  2.13791300e-05  2.01777930e-05 ...  1.57601644e-05
   1.73184926e-05  1.93016931e-05]
 [ 8.00542148e-06  9.18499791e-06  9.98380074e-06 ...  1.04069059e-05
   1.12236330e-05  9.81926587e-06]
 ...
 [-1.00891348e-05 -8.86429825e-06 -8.96450729e-06 ... -1.24300750e-05
  -1.01828382e-05 -8.10262645e-06]
 [-1.20363575e-05 -1.33222638e-05 -1.37556272e-05 ... -8.39889708e-06
  -7.56879990e-06 -6.38623351e-06]
 [-7.36182483e-06 -8.37449352e-06 -8.11317022e-06 ... -1.43952511e-05
  -1.35088239e-05 -1.03014900e-05]]"
57,1,1,1,58,4,5,"[[ 6.1003097e-06  6.8024865e-06  9.0779531e-06 ...  1.8583776e-05
   2.4844781e-05  3.9028888e-05]
 [ 1.8339681e-05  1.7694520e-05  2.0266210e-05 ...  2.6181026e-05
   2.6447944e-05  2.4734471e-05]
 [ 8.3690984e-06  8.7129356e-06  9.9318477e-06 ...  7.2906787e-06
   5.9933286e-06  3.9369320e-06]
 ...
 [-5.7442826e-06 -6.2639701e-06 -9.3149747e-06 ... -6.5921890e-06
  -3.1201084e-06 -1.1400974e-06]
 [-5.8270616e-06 -7.5193961e-06 -9.7040884e-06 ... -1.1309214e-05
  -7.2826074e-06 -4.5898032e-06]
 [-8.3210434e-06 -7.8689209e-06 -8.8374354e-06 ... -1.2415980e-05
  -1.3614381e-05 -1.1980038e-05]]"
58,1,1,1,59,4,5,"[[ 8.61525132e-06  9.28593272e-06  1.04037690e-05 ... -9.49402965e-05
  -5.38311397e-05  3.24213306e-06]
 [ 1.95952907e-05  2.00152990e-05  2.26450011e-05 ...  2.58220662e-05
   2.51324618e-05  2.80449858e-05]
 [ 9.51448237e-06  9.06271180e-06  9.06496734e-06 ...  2.13435924e-05
   1.86530524e-05  1.57862778e-05]
 ...
 [-1.48827294e-05 -1.35452010e-05 -1.16771889e-05 ... -6.17838214e-06
   1.10092024e-07  7.17158809e-06]
 [-1.07383130e-05 -1.05234994e-05 -1.18137641e-05 ... -1.18729477e-05
  -8.72945111e-06 -6.68377970e-06]
 [-9.04071294e-06 -9.38408812e-06 -9.71198551e-06 ... -2.71988010e-05
  -2.24295381e-05 -1.72043456e-05]]"
59,1,1,1,60,4,5,"[[ 1.4944920e-05  1.4672287e-05  1.5202673e-05 ...  2.4282303e-05
   3.2008622e-05  3.0957988e-05]
 [ 2.1165690e-05  2.0240841e-05  1.8780858e-05 ...  1.7437382e-05
   1.9332521e-05  2.1724722e-05]
 [ 5.7728384e-06  7.0531046e-06  8.6806840e-06 ...  2.3187124e-05
   1.9721916e-05  1.5283544e-05]
 ...
 [-2.1814611e-05 -1.8037157e-05 -1.3908406e-05 ... -7.0231931e-06
  -8.4133662e-06 -7.2571956e-06]
 [-1.4041768e-05 -1.3784997e-05 -1.3222358e-05 ... -6.1401620e-06
  -7.6545730e-06 -7.6384240e-06]
 [-9.0547037e-06 -9.5188079e-06 -9.7269503e-06 ... -2.6314581e-05
  -1.5579904e-05 -6.6129764e-06]]"
60,1,1,1,61,5,1,"[[ 2.06396203e-06 -1.00696889e-06 -4.57335500e-06 ...  1.71878692e-05
   2.04715452e-05  1.97406425e-05]
 [ 3.83467705e-05  2.50429530e-05  1.13433171e-05 ...  3.41279592e-05
   3.72511677e-05  3.63079380e-05]
 [ 1.20107570e-05  8.51859568e-06  8.82442691e-06 ...  1.97351437e-05
   1.30785820e-05  9.01970634e-06]
 ...
 [-1.90296396e-05 -1.47814735e-05 -1.25311954e-05 ... -7.18036290e-06
  -6.32549018e-06 -5.79930747e-06]
 [-8.42953068e-06 -9.24719370e-06 -1.19652768e-05 ... -5.46628735e-06
  -1.10718611e-05 -1.35359078e-05]
 [-2.00749637e-05 -1.49332582e-05 -7.55168412e-06 ... -8.70141139e-06
  -1.23950504e-05 -1.35238015e-05]]"
61,1,1,1,62,5,1,"[[ 1.38026724e-06 -8.48868524e-07  5.44667955e-07 ...  9.03214914e-06
   1.46674975e-05  1.93307296e-05]
 [ 2.29330653e-05  1.75221012e-05  1.45679178e-05 ...  9.83479731e-06
   1.27197463e-05  1.27930734e-05]
 [ 9.33987121e-06  9.01306794e-06  9.03985620e-06 ...  2.35047014e-06
   2.86937166e-06  2.72620127e-06]
 ...
 [-8.36648906e-06 -8.26974156e-06 -7.47395188e-06 ... -3.02309923e-06
  -2.72231068e-06 -8.36980598e-06]
 [-1.33151698e-05 -1.49513335e-05 -1.42202098e-05 ... -1.01766782e-05
  -1.42008739e-05 -1.74905053e-05]
 [-6.34069374e-06 -5.96967038e-06 -7.19224181e-06 ...  7.74596884e-08
   3.52653547e-06  4.89754711e-06]]"
62,1,1,1,63,5,1,"[[-4.27329178e-06 -6.38582196e-06 -1.05312356e-05 ...  8.64551203e-06
  -2.33414653e-06 -1.35839282e-05]
 [ 1.09055472e-05  1.27722724e-05  1.40410157e-05 ... -3.24913316e-07
   3.99979899e-06  1.44951309e-05]
 [ 5.93900904e-06  3.35924528e-06  3.91191952e-06 ...  1.90637475e-05
   2.54831175e-05  3.56840901e-05]
 ...
 [-8.47484625e-06 -9.05367233e-06 -8.59108150e-06 ... -2.68115073e-05
  -2.71971094e-05 -2.13911117e-05]
 [-9.68119184e-06 -2.02508841e-06  2.93724588e-06 ... -2.18885816e-05
  -2.24957112e-05 -1.86617926e-05]
 [-1.51455743e-05 -1.41017508e-05 -1.50999285e-05 ... -3.15270700e-05
  -2.92066106e-05 -1.64263001e-05]]"
63,1,1,1,64,5,1,"[[ 1.5540840e-05  1.4526936e-05  1.3786722e-05 ...  7.3447400e-06
   1.0174550e-05  1.4425892e-05]
 [ 2.4738070e-05  2.3978606e-05  2.1834418e-05 ...  2.8027118e-05
   2.7997403e-05  2.3829158e-05]
 [ 1.2227330e-05  1.3950095e-05  1.2427147e-05 ...  3.1118445e-05
   3.6149853e-05  3.4242756e-05]
 ...
 [-5.5015093e-06 -2.3443511e-06 -1.0181258e-06 ...  4.1566480e-05
   4.5772511e-05  4.0635019e-05]
 [ 6.5974632e-06  8.2410770e-06  5.0508461e-06 ...  2.2410473e-05
   2.2275322e-05  1.6465752e-05]
 [-9.6051335e-06 -7.3384176e-06 -5.0172312e-06 ...  9.0306414e-05
   7.9081030e-05  5.4775919e-05]]"
64,1,1,1,65,5,1,"[[ 3.6789561e-06  7.6439346e-06  1.0174991e-05 ...  1.3893291e-05
   1.0625931e-05  1.1898085e-05]
 [ 1.3545943e-05  1.4276686e-05  1.5037904e-05 ...  1.6523289e-05
   1.5781385e-05  1.7111613e-05]
 [ 3.6924148e-06  5.9217818e-06  7.5739895e-06 ...  8.2847473e-06
   7.1619916e-06  5.1551974e-06]
 ...
 [-8.4105577e-06 -8.3744253e-06 -6.6273842e-06 ...  4.4161766e-06
   1.4892908e-06 -2.1458407e-06]
 [-7.0431847e-06 -7.0560973e-06 -7.6376455e-06 ... -6.5884007e-07
  -1.7239230e-06 -3.7137315e-06]
 [-1.1754615e-05 -1.1224234e-05 -1.0190142e-05 ... -1.1326308e-07
  -1.0392770e-06 -1.7923738e-06]]"
65,1,1,1,66,6,2,"[[ 1.54519621e-05  1.28320235e-05  1.43904635e-05 ...  3.11455042e-05
   2.92136410e-05  2.72290636e-05]
 [ 2.85474835e-05  2.74812028e-05  2.75729999e-05 ...  2.12223713e-05
   1.73614553e-05  1.69560699e-05]
 [ 1.54451900e-05  1.39904087e-05  1.33900649e-05 ...  1.12553744e-05
   1.16451356e-05  1.07013338e-05]
 ...
 [-1.04151022e-05 -9.35809112e-06 -9.06926107e-06 ... -2.42002034e-06
  -3.46901811e-06 -2.65155495e-06]
 [-4.37654990e-06 -4.12879581e-06 -2.51723395e-06 ...  3.04597756e-06
  -1.46099751e-06 -5.34880564e-06]
 [-1.17338204e-05 -1.09848670e-05 -1.00560374e-05 ... -1.28518795e-05
  -1.42222525e-05 -1.33830072e-05]]"
66,1,1,1,67,6,2,"[[ 1.00656680e-05  1.30850485e-05  2.16433036e-05 ...  3.94482367e-06
   2.03093873e-06  1.40278544e-07]
 [ 2.48875076e-05  2.44990097e-05  2.54044917e-05 ...  9.97753705e-06
   7.34033711e-06  1.04018400e-05]
 [ 8.96995698e-06  8.07985816e-06  7.81082963e-06 ...  4.77028379e-06
   5.26128724e-06  5.18305978e-06]
 ...
 [-9.78603657e-06 -9.72197267e-06 -8.41120254e-06 ... -9.67653887e-06
  -1.13164606e-05 -1.34419743e-05]
 [-1.60947147e-05 -1.24174094e-05 -1.18670550e-05 ... -8.55866892e-06
  -9.15632154e-06 -1.10523688e-05]
 [-9.65556865e-06 -8.40275879e-06 -6.74770308e-06 ... -1.53179044e-05
  -1.73856060e-05 -1.76750145e-05]]"
67,1,1,1,68,6,2,"[[-1.23480129e-06  2.33909282e-06  6.29824717e-06 ... -5.49054357e-06
  -1.26478568e-07  6.36621962e-06]
 [ 1.88678077e-05  2.10341368e-05  2.39003712e-05 ...  2.73765036e-05
   2.68595868e-05  3.03068609e-05]
 [ 9.62303329e-06  8.95500398e-06  8.65178026e-06 ...  1.09867005e-05
   1.26546493e-05  1.30803937e-05]
 ...
 [-1.17843711e-05 -1.14176082e-05 -1.02955273e-05 ... -1.61430271e-05
  -1.44498390e-05 -1.40859593e-05]
 [-1.29482169e-05 -1.06347543e-05 -8.76883314e-06 ... -2.03255586e-05
  -1.69136274e-05 -1.42055915e-05]
 [-7.23651146e-06 -7.16155000e-06 -6.53006555e-06 ... -1.49747611e-05
  -1.10764749e-05 -5.58186366e-06]]"
68,1,1,1,69,6,2,"[[ 5.58010515e-06  6.05554123e-06  7.36695802e-06 ... -7.27819770e-06
  -5.03997990e-06 -1.76200740e-06]
 [ 2.20091279e-05  1.88843460e-05  1.57799077e-05 ...  1.51164559e-05
   1.59880401e-05  1.77610054e-05]
 [ 7.69174312e-06  7.67580241e-06  8.73183126e-06 ...  1.38365058e-05
   1.53257952e-05  1.47403462e-05]
 ...
 [-4.41743032e-06 -6.76292484e-06 -9.04281205e-06 ... -8.24492599e-06
  -5.26980693e-06 -2.53709095e-06]
 [-1.34402771e-05 -1.05182753e-05 -4.35232914e-06 ... -1.07608057e-05
  -8.86675389e-06 -7.32761328e-06]
 [-8.69833093e-06 -1.08380273e-05 -1.04245664e-05 ... -1.36470362e-05
  -1.41022765e-05 -1.17560539e-05]]"
69,1,1,1,70,6,2,"[[ 1.1582339e-05  1.4441215e-05  1.2868746e-05 ...  1.1310627e-05
   1.1738931e-05  1.1165507e-05]
 [ 1.8611841e-05  1.6793201e-05  1.6813812e-05 ...  1.3105963e-05
   1.4638711e-05  1.7204913e-05]
 [ 4.8664401e-06  6.3546968e-06  7.0703154e-06 ...  5.8088799e-06
   7.4259206e-06  7.7166324e-06]
 ...
 [-1.2151757e-05 -9.7158745e-06 -1.0497466e-05 ...  3.0413369e-06
  -2.0506736e-06 -6.5842491e-06]
 [-1.8303028e-05 -2.0442656e-05 -2.3186936e-05 ... -3.2520259e-06
  -5.1698166e-06 -8.0969476e-06]
 [-8.4593767e-06 -7.0631222e-06 -6.9248340e-06 ...  1.9016297e-06
  -2.8627744e-08 -2.7205913e-06]]"
70,1,1,1,71,8,3,"[[ 6.5922092e-07  9.1160609e-06  2.3425069e-05 ... -9.9979756e-05
  -1.0793429e-04 -8.3811392e-05]
 [ 2.1203236e-05  2.5329993e-05  3.0523846e-05 ...  1.3079805e-05
   1.4256145e-05  1.9515875e-05]
 [ 1.1085392e-05  1.1256429e-05  1.1644150e-05 ...  3.3493459e-06
   3.7732318e-06  4.3556893e-06]
 ...
 [ 5.5541477e-07 -2.4082776e-06 -4.3722025e-06 ... -1.3754352e-05
  -1.4367246e-05 -1.3164940e-05]
 [-8.0941782e-06 -6.7938281e-06 -6.0403672e-06 ... -1.3081647e-05
  -1.3882916e-05 -1.1267858e-05]
 [ 1.9939193e-06  3.0743704e-06  2.8201105e-06 ... -1.8108027e-05
  -1.8890263e-05 -1.6405536e-05]]"
71,1,1,1,72,8,3,"[[ 1.3820036e-05  1.4450722e-05  1.3899349e-05 ... -7.1569880e-06
   5.7241796e-06  2.0919946e-05]
 [ 3.0719693e-05  2.5512498e-05  2.1056007e-05 ...  1.2936659e-05
   1.0423387e-05  1.0390000e-05]
 [ 7.4420163e-06  6.6976090e-06  6.6931088e-06 ...  1.3592915e-05
   1.1109876e-05  8.5203555e-06]
 ...
 [-1.2233053e-05 -1.2458647e-05 -1.0080099e-05 ...  7.3739591e-07
  -1.0286080e-06 -2.9916519e-06]
 [-1.6475748e-05 -1.8466013e-05 -1.8386580e-05 ... -5.9895724e-06
  -8.3982550e-06 -9.6497579e-06]
 [-1.0167803e-05 -9.7520588e-06 -8.3812474e-06 ...  1.6507827e-06
  -2.3431458e-06 -5.5511969e-06]]"
72,1,1,1,73,8,3,"[[ 1.4271131e-05  1.6900865e-05  1.6112619e-05 ...  4.2782740e-05
   2.9484461e-05  1.7264934e-05]
 [ 2.5125131e-05  2.6343538e-05  2.7884187e-05 ...  2.3260025e-05
   2.6633343e-05  2.9936906e-05]
 [ 1.0689839e-05  9.2343207e-06  8.3746472e-06 ...  8.9798386e-06
   1.2639107e-05  1.4990365e-05]
 ...
 [-8.1123853e-06 -8.3730256e-06 -8.4117864e-06 ... -8.0152331e-06
  -7.7264995e-06 -7.7156556e-06]
 [-2.9449382e-05 -2.7701110e-05 -2.4531702e-05 ... -8.1048765e-06
  -4.8143579e-06 -4.8833003e-06]
 [-3.5670364e-06 -6.9701974e-07  1.0257515e-06 ... -1.6945360e-05
  -1.5882844e-05 -1.3630585e-05]]"
73,1,1,1,74,8,3,"[[ 4.69741644e-06  5.48222988e-06  8.52996345e-06 ... -6.12002168e-06
   1.01562055e-05  2.91544002e-05]
 [ 2.11472743e-05  2.11507104e-05  2.05529686e-05 ...  1.19084407e-05
   8.17428554e-06  4.67114523e-06]
 [ 6.60916248e-06  5.03482352e-06  5.33331331e-06 ...  8.33551530e-06
   7.70591760e-06  7.73616284e-06]
 ...
 [-7.31349292e-06 -6.60222031e-06 -6.60195838e-06 ...  2.10443787e-08
  -3.95851339e-06 -7.70095266e-06]
 [-7.26248436e-06 -5.27847214e-06 -4.34862295e-06 ... -1.05415693e-05
  -1.16101746e-05 -1.27419380e-05]
 [-1.11640366e-05 -8.39240784e-06 -6.60947717e-06 ... -7.58185888e-06
  -9.49365131e-06 -1.17579202e-05]]"
74,1,1,1,75,8,3,"[[ 2.17791012e-06 -2.68025588e-06 -7.81711969e-06 ...  3.45102017e-05
   1.94870008e-05  3.74085425e-06]
 [ 2.19315898e-05  1.95927623e-05  1.76404392e-05 ...  1.44828300e-05
   1.41276560e-05  9.46495493e-06]
 [ 1.04209093e-05  7.38358949e-06  6.42126861e-06 ...  7.78565754e-06
   7.06267383e-06  6.44237889e-06]
 ...
 [-4.82327869e-06 -3.72291152e-06 -3.06832908e-06 ... -1.05429235e-05
  -1.04200981e-05 -1.12105408e-05]
 [-7.92844912e-06 -6.54964788e-06 -8.13983115e-06 ... -1.63776876e-05
  -1.81175110e-05 -1.92151238e-05]
 [-6.36617187e-06 -7.95052438e-06 -8.38496544e-06 ... -1.07614069e-05
  -1.64441462e-05 -1.92774824e-05]]"
75,1,1,1,76,2,6,"[[ 6.0850589e-06  5.7032603e-06  5.0418034e-06 ...  2.2135750e-05
   2.3625094e-05  2.4636674e-05]
 [ 1.7516346e-05  1.7656710e-05  1.9263622e-05 ...  2.5848491e-05
   2.5031912e-05  2.3538521e-05]
 [ 8.1625894e-06  6.3173811e-06  6.3642901e-06 ...  9.0789754e-06
   8.9745299e-06  8.1866738e-06]
 ...
 [-8.9699670e-06 -1.1237292e-05 -1.2851720e-05 ... -1.0212857e-06
  -3.2217968e-06 -5.1999136e-06]
 [-1.1385262e-05 -9.8817882e-06 -1.0630055e-05 ... -7.7276954e-06
  -9.2746550e-06 -1.1380823e-05]
 [-5.5509236e-06 -8.5361080e-06 -1.0181715e-05 ... -3.4030006e-07
  -2.4855951e-06 -4.1470457e-06]]"
76,1,1,1,77,2,6,"[[ 1.33291260e-05  1.24857424e-05  1.37681345e-05 ...  1.17361224e-05
   1.16140982e-05  1.11778654e-05]
 [ 2.27461569e-05  2.10508260e-05  1.97976078e-05 ...  2.34078925e-05
   2.26975390e-05  2.32907842e-05]
 [ 8.94347249e-06  9.03477030e-06  8.38681717e-06 ...  1.16105020e-05
   9.95552273e-06  8.62532033e-06]
 ...
 [-7.74048112e-06 -8.29610144e-06 -9.75110106e-06 ... -7.06081437e-06
  -6.96428151e-06 -6.83721464e-06]
 [-1.18970502e-05 -1.23458858e-05 -1.24581566e-05 ... -9.88311695e-06
  -1.11488234e-05 -1.17507770e-05]
 [-5.39456596e-06 -5.71950204e-06 -5.69430040e-06 ... -1.02343865e-05
  -8.34869934e-06 -6.39273367e-06]]"
77,1,1,1,78,2,6,"[[ 1.39617077e-05  1.34928496e-05  1.31035695e-05 ...  1.68096267e-05
   1.98065954e-05  2.53035269e-05]
 [ 2.19026715e-05  2.18130172e-05  2.18278019e-05 ...  2.15083928e-05
   2.22785002e-05  2.30004807e-05]
 [ 9.60537636e-06  1.03098382e-05  9.09109531e-06 ...  9.17777652e-06
   8.50511333e-06  8.65219044e-06]
 ...
 [-5.78242498e-06 -8.15790008e-06 -9.73959504e-06 ... -1.96785331e-05
  -1.88185513e-05 -1.68109091e-05]
 [-1.29821819e-05 -1.15668927e-05 -1.24134294e-05 ... -6.46251465e-06
  -5.92322931e-06 -6.30953582e-06]
 [-9.07717640e-06 -9.05059460e-06 -9.41139388e-06 ... -8.92628213e-06
  -7.49152014e-06 -4.90267257e-06]]"
78,1,1,1,79,2,6,"[[ 5.1900538e-06  8.1884054e-06  1.0377804e-05 ...  1.2385903e-05
   1.1786988e-05  9.7804204e-06]
 [ 2.2229295e-05  2.2269252e-05  2.2118156e-05 ...  2.0321002e-05
   1.9369973e-05  1.8455759e-05]
 [ 5.8592314e-06  6.3730035e-06  6.8292661e-06 ...  1.3658402e-05
   1.2902256e-05  1.1126061e-05]
 ...
 [-7.1665218e-06 -6.5994682e-06 -7.0503861e-06 ... -8.4781414e-06
  -6.1529349e-06 -5.1158627e-06]
 [-3.0251756e-06 -3.0174094e-06 -3.1737395e-06 ... -6.6202697e-06
  -6.6212342e-06 -7.0287597e-06]
 [-1.1379605e-05 -1.2524871e-05 -1.1723341e-05 ... -7.0757824e-06
  -7.2465532e-06 -7.7460245e-06]]"
79,1,1,1,80,2,6,"[[ 1.6027181e-05  1.3264636e-05  9.5035957e-06 ...  1.8261528e-05
   1.5617507e-05  1.3113707e-05]
 [ 2.3874780e-05  2.3683304e-05  2.3836039e-05 ...  1.9965617e-05
   2.0502461e-05  2.0824467e-05]
 [ 8.4109970e-06  9.1169522e-06  1.0199987e-05 ...  1.0381161e-05
   1.0543364e-05  1.1088314e-05]
 ...
 [ 1.0573184e-05  6.0809339e-06 -3.1046332e-07 ... -7.9825368e-06
  -6.3101465e-06 -5.2571345e-06]
 [-6.0209236e-06 -7.6613414e-06 -8.9690584e-06 ... -1.3389732e-05
  -1.3763021e-05 -1.3318480e-05]
 [-1.6178603e-06 -2.7043477e-06 -3.9301030e-06 ... -3.7346222e-06
  -1.9423815e-06 -1.4166777e-06]]"
80,1,1,1,81,4,6,"[[ 1.38774685e-05  1.15705034e-05  9.73521128e-06 ...  1.33540425e-05
   1.35011542e-05  1.43955203e-05]
 [ 2.04201006e-05  1.97915761e-05  1.91521940e-05 ...  2.30476089e-05
   2.26463235e-05  2.12984251e-05]
 [ 8.40617122e-06  8.23018945e-06  8.18202079e-06 ...  9.26362191e-06
   1.01288306e-05  1.15736448e-05]
 ...
 [-9.30513761e-06 -8.08159348e-06 -7.28919986e-06 ...  5.40238943e-06
   5.00577789e-06  4.76786772e-06]
 [-1.35745622e-05 -1.21681969e-05 -1.12597181e-05 ... -1.12998241e-05
  -1.48328400e-05 -1.51549457e-05]
 [-8.50227752e-06 -1.01410460e-05 -1.17100808e-05 ... -3.12538828e-06
  -4.21820141e-06 -4.95452923e-06]]"
81,1,1,1,82,4,6,"[[ 1.13304313e-05  1.06790585e-05  1.07309106e-05 ...  9.40688460e-06
   1.00980633e-05  1.04155715e-05]
 [ 2.27008186e-05  2.15415930e-05  2.20597140e-05 ...  2.06982477e-05
   2.28962272e-05  2.32051152e-05]
 [ 1.01702863e-05  1.00467769e-05  1.15064722e-05 ...  1.22068759e-05
   1.07756860e-05  9.81775884e-06]
 ...
 [-9.27757628e-06 -1.13779661e-05 -1.23035807e-05 ... -1.36341923e-05
  -1.10318024e-05 -8.00342059e-06]
 [-1.15121557e-05 -1.21334524e-05 -1.09970570e-05 ... -4.84694692e-06
  -3.66220070e-06 -3.72298314e-06]
 [-5.12255338e-06 -6.50940274e-06 -7.02821217e-06 ... -2.15796854e-06
   5.80327196e-07  9.84434678e-07]]"
82,1,1,1,83,4,6,"[[ 1.4095015e-05  1.3212134e-05  1.2750393e-05 ...  6.3724688e-06
   6.3839752e-06  8.1928702e-06]
 [ 2.0665666e-05  1.9548004e-05  1.9170899e-05 ...  2.0338237e-05
   1.8981353e-05  1.8469775e-05]
 [ 8.4759458e-06  9.2753880e-06  1.1231585e-05 ...  7.6550878e-06
   6.8949412e-06  6.6087937e-06]
 ...
 [-1.3220608e-05 -1.0735987e-05 -6.6254161e-06 ... -9.0534204e-06
  -8.7770422e-06 -7.9367273e-06]
 [-1.5314767e-05 -1.3562517e-05 -1.0731283e-05 ... -1.1234902e-05
  -1.2556889e-05 -1.2991794e-05]
 [-5.5761484e-06 -3.4590762e-06 -3.0328545e-06 ... -1.1534905e-05
  -1.2556544e-05 -1.3326430e-05]]"
83,1,1,1,84,4,6,"[[ 1.18784355e-05  1.23644404e-05  1.22167803e-05 ...  8.78773790e-06
   9.63495040e-06  1.03919047e-05]
 [ 2.17350917e-05  1.93789474e-05  1.82983567e-05 ...  1.85583140e-05
   1.95579269e-05  2.11669649e-05]
 [ 9.07101730e-06  9.05676097e-06  9.81383710e-06 ...  7.67550864e-06
   7.17193006e-06  6.14827786e-06]
 ...
 [ 3.68861583e-06 -7.60848025e-07 -4.52041968e-06 ...  2.36625260e-06
   3.07656069e-06  6.38404481e-06]
 [-1.19774468e-05 -1.12261050e-05 -1.23428163e-05 ... -8.38091364e-06
  -8.10683468e-06 -6.26109158e-06]
 [-3.48728076e-06 -3.30197281e-06 -5.19467903e-06 ... -7.70615952e-06
  -7.88451143e-06 -8.37612060e-06]]"
84,1,1,1,85,4,6,"[[ 1.24147891e-05  1.15353268e-05  9.13861641e-06 ...  7.40543010e-06
   7.43985129e-06  8.59423835e-06]
 [ 2.08250131e-05  2.02444553e-05  1.91486979e-05 ...  2.33645715e-05
   2.35206098e-05  2.42946589e-05]
 [ 1.04220862e-05  1.01684118e-05  9.60287343e-06 ...  8.28154953e-06
   9.20827370e-06  1.01836285e-05]
 ...
 [-9.29878388e-06 -7.49356013e-06 -7.20374010e-06 ... -7.22136974e-06
  -6.43354542e-06 -4.39185351e-06]
 [-1.21822295e-05 -1.33262283e-05 -1.19685819e-05 ... -5.11059670e-06
  -3.80944766e-06 -3.79970311e-06]
 [-5.91288699e-06 -6.39412156e-06 -5.69386839e-06 ... -1.06970156e-05
  -1.05272593e-05 -8.05823674e-06]]"
85,1,1,1,86,5,6,"[[ 1.11107029e-05  1.17514783e-05  1.16731271e-05 ...  1.08184086e-05
   1.05927365e-05  1.03705643e-05]
 [ 2.23673978e-05  2.04605494e-05  1.98259495e-05 ...  2.52910722e-05
   2.62904487e-05  2.53364942e-05]
 [ 7.56668805e-06  8.72853525e-06  8.91356740e-06 ...  7.86223609e-06
   7.87812769e-06  1.01656824e-05]
 ...
 [-9.32795592e-06 -7.68736300e-06 -6.93738093e-06 ... -7.71407304e-06
  -7.65373898e-06 -7.71351279e-06]
 [-1.65761903e-05 -1.57659761e-05 -1.49724528e-05 ... -4.58615114e-06
  -5.55546421e-06 -5.70842440e-06]
 [-7.14994599e-07 -9.99618806e-07 -6.43053170e-07 ... -8.17804721e-06
  -6.74771218e-06 -4.60030105e-06]]"
86,1,1,1,87,5,6,"[[ 1.2762274e-05  1.2379273e-05  1.1087743e-05 ...  7.2907560e-06
   9.4108982e-06  9.0539725e-06]
 [ 2.0701569e-05  2.0032548e-05  2.0473293e-05 ...  2.0706122e-05
   1.9656603e-05  1.8914467e-05]
 [ 1.0820194e-05  8.7336612e-06  7.2366265e-06 ...  8.9731566e-06
   8.1137505e-06  7.3686806e-06]
 ...
 [ 2.5037968e-06  3.6831036e-06  3.2564608e-06 ... -7.2033372e-06
  -8.8288880e-06 -1.1525772e-05]
 [-3.7103284e-06 -4.1208868e-06 -5.9426429e-06 ... -1.3787026e-05
  -1.3888953e-05 -1.5125311e-05]
 [-2.4860217e-06 -3.5521000e-06 -4.8351685e-06 ... -6.9383163e-06
  -5.8226697e-06 -6.6322705e-06]]"
87,1,1,1,88,5,6,"[[ 9.96533981e-06  1.06956850e-05  1.03429620e-05 ...  1.25743336e-05
   1.40516277e-05  1.58926323e-05]
 [ 2.04583048e-05  1.88623599e-05  1.62102860e-05 ...  1.96071487e-05
   2.08952060e-05  2.06949153e-05]
 [ 1.28874317e-05  1.27752764e-05  1.16978799e-05 ...  8.97143855e-06
   8.26406449e-06  7.59104796e-06]
 ...
 [-4.50150583e-06 -5.56497798e-06 -7.66792709e-06 ... -8.98798135e-06
  -7.87610315e-06 -6.15570298e-06]
 [-1.10913652e-05 -1.04704450e-05 -9.74906743e-06 ... -1.51043714e-05
  -1.51084578e-05 -1.43243515e-05]
 [-9.29513135e-06 -7.94298376e-06 -8.31814486e-06 ... -7.57712269e-06
  -9.20114780e-06 -9.52204755e-06]]"
88,1,1,1,89,5,6,"[[ 1.2002271e-05  1.1535880e-05  1.0772511e-05 ...  1.0172677e-05
   1.2421764e-05  1.2828592e-05]
 [ 1.9947582e-05  2.0260444e-05  2.0544314e-05 ...  2.1513437e-05
   2.1604861e-05  2.1996961e-05]
 [ 9.6628073e-06  8.8412689e-06  7.5758667e-06 ...  7.9814909e-06
   7.8342810e-06  7.1258241e-06]
 ...
 [ 1.3263009e-05  1.8420524e-05  1.6425922e-05 ... -1.4735832e-05
  -1.3988102e-05 -1.2723776e-05]
 [-3.8188541e-06 -5.0534700e-06 -8.1379621e-06 ... -1.6037216e-05
  -1.5223402e-05 -1.5101833e-05]
 [-4.3026507e-06 -2.8277798e-06 -2.9159107e-06 ... -9.1202837e-06
  -9.7509019e-06 -9.7196844e-06]]"
89,1,1,1,90,5,6,"[[ 1.03943003e-05  1.23877262e-05  1.20079303e-05 ...  1.31040651e-05
   1.30804237e-05  1.51099912e-05]
 [ 2.11522602e-05  2.09229111e-05  1.86986344e-05 ...  1.95386474e-05
   1.73970384e-05  1.77750680e-05]
 [ 7.75483204e-06  7.24169877e-06  6.04207980e-06 ...  8.70284566e-06
   1.02392114e-05  1.10555975e-05]
 ...
 [-1.17387608e-05 -1.22058382e-05 -9.95947903e-06 ... -1.22813790e-05
  -1.18161715e-05 -1.04203154e-05]
 [-1.04314886e-05 -1.26107643e-05 -1.42385352e-05 ... -1.45672502e-05
  -1.50467649e-05 -1.64658413e-05]
 [-1.10734500e-05 -9.81962876e-06 -7.64559900e-06 ... -7.06274159e-06
  -5.84794043e-06 -5.71558712e-06]]"
90,1,1,1,91,6,6,"[[ 1.35405007e-05  1.40963757e-05  1.34336478e-05 ...  1.09307166e-05
   1.00727730e-05  9.92039350e-06]
 [ 2.28149820e-05  2.33227311e-05  2.33022402e-05 ...  2.21917253e-05
   2.20093189e-05  2.19302092e-05]
 [ 9.20072216e-06  1.03397551e-05  9.50714821e-06 ...  5.78604386e-06
   6.51983919e-06  7.72380008e-06]
 ...
 [-8.61253966e-07 -6.68845928e-07 -1.34255504e-06 ... -3.92459242e-06
  -1.93715010e-07  1.17877136e-07]
 [-1.26939485e-05 -1.40445318e-05 -1.67539511e-05 ... -7.66230369e-06
  -5.40190058e-06 -6.60369778e-06]
 [-1.67112705e-06 -1.87154149e-06 -2.67572477e-06 ... -6.79647474e-06
  -8.08090954e-06 -7.06697983e-06]]"
91,1,1,1,92,6,6,"[[ 1.16350720e-05  1.08970808e-05  1.04402698e-05 ...  4.44650277e-06
   4.91393121e-06  7.38476001e-06]
 [ 2.42992537e-05  2.50824251e-05  2.46030104e-05 ...  1.91227082e-05
   2.30102050e-05  2.38349658e-05]
 [ 1.06730622e-05  9.91943580e-06  7.99250392e-06 ...  9.76947467e-06
   7.99242844e-06  1.01266069e-05]
 ...
 [-9.73586066e-06 -1.07747828e-05 -1.22703705e-05 ... -1.00671341e-05
  -9.29469570e-06 -9.65209438e-06]
 [-1.48552263e-05 -1.61728458e-05 -1.64261546e-05 ... -9.86653140e-06
  -7.48758339e-06 -5.27809834e-06]
 [-1.24344306e-05 -1.15529319e-05 -9.93845151e-06 ... -7.90712875e-06
  -6.57083319e-06 -7.22725053e-06]]"
92,1,1,1,93,6,6,"[[ 1.0181546e-05  1.1112975e-05  9.1116326e-06 ...  8.8485695e-06
   9.3888038e-06  9.2988139e-06]
 [ 1.9884472e-05  1.8465596e-05  1.9204166e-05 ...  2.1345972e-05
   1.9133464e-05  1.9210391e-05]
 [ 9.9245299e-06  1.1404887e-05  1.2574118e-05 ...  8.5846486e-06
   8.7592662e-06  9.6257781e-06]
 ...
 [-8.6225191e-06 -9.0557642e-06 -6.9917141e-06 ... -4.2207043e-06
  -7.0322549e-06 -7.4384820e-06]
 [-4.5254310e-06 -5.6899016e-06 -9.3270219e-06 ... -1.5837071e-05
  -1.3118866e-05 -1.1059759e-05]
 [-1.0267765e-05 -1.1733091e-05 -1.2285769e-05 ... -8.3894583e-06
  -8.3954938e-06 -8.3894047e-06]]"
93,1,1,1,94,6,6,"[[ 1.23142254e-05  1.43097359e-05  1.74195739e-05 ...  1.24088838e-05
   1.27299581e-05  1.23370728e-05]
 [ 1.89799175e-05  2.09229383e-05  2.11503411e-05 ...  2.22459785e-05
   2.13983385e-05  2.07902285e-05]
 [ 1.51841523e-05  1.36919953e-05  1.04171995e-05 ...  1.09690027e-05
   1.23748696e-05  1.36923582e-05]
 ...
 [-1.00637990e-05 -8.51776258e-06 -9.75415787e-06 ... -1.17495847e-05
  -1.33837912e-05 -1.30259778e-05]
 [-1.19432543e-05 -9.92277364e-06 -8.39766562e-06 ... -1.58781895e-05
  -1.77585644e-05 -1.79366343e-05]
 [-6.42654095e-06 -5.14162548e-06 -5.04168474e-06 ... -7.27476754e-06
  -7.34648529e-06 -8.83550456e-06]]"
94,1,1,1,95,6,6,"[[ 1.0752604e-05  1.1920807e-05  1.3288354e-05 ...  1.2415774e-05
   1.2425866e-05  1.2415869e-05]
 [ 2.4141555e-05  2.4904592e-05  2.5150774e-05 ...  2.3536284e-05
   2.4427616e-05  2.3506487e-05]
 [ 1.1751421e-05  9.5186815e-06  7.9440633e-06 ...  9.1509883e-06
   9.6459853e-06  9.7496140e-06]
 ...
 [-2.3665018e-06  7.1265202e-07  7.0481792e-07 ...  1.6274136e-06
  -2.0252119e-07 -9.8784619e-07]
 [-9.7212369e-06 -9.7492630e-06 -9.7212614e-06 ... -9.5797377e-06
  -1.0335299e-05 -1.1071755e-05]
 [ 9.9866702e-07  4.9543866e-07 -1.3086657e-06 ... -6.3068910e-06
  -6.3747311e-06 -7.0504720e-06]]"
95,1,1,1,96,8,6,"[[ 1.28278116e-05  1.27601597e-05  1.30872695e-05 ...  1.15207295e-05
   1.12333473e-05  1.15926696e-05]
 [ 1.79373528e-05  1.83908232e-05  1.97984173e-05 ...  2.11599108e-05
   2.02465508e-05  1.95181583e-05]
 [ 8.32892601e-06  9.64421088e-06  9.71410827e-06 ...  8.61520766e-06
   6.53706593e-06  5.40351311e-06]
 ...
 [-3.62553646e-06 -3.09064421e-06 -2.35812445e-06 ... -8.38812230e-06
  -6.83661619e-06 -6.44368811e-06]
 [-7.05472075e-06 -5.85593034e-06 -6.37627500e-06 ... -1.46532511e-05
  -1.48129793e-05 -1.33172280e-05]
 [-1.10854844e-05 -8.99048428e-06 -8.39361383e-06 ... -9.83591872e-06
  -8.29820783e-06 -8.07721790e-06]]"
96,1,1,1,97,8,6,"[[ 9.80616096e-06  1.03336160e-05  1.00704456e-05 ...  1.31253155e-05
   1.30592261e-05  1.27537251e-05]
 [ 2.27836445e-05  2.24995165e-05  2.34871113e-05 ...  1.81223677e-05
   1.79844792e-05  1.79725612e-05]
 [ 1.42787721e-05  1.35499577e-05  1.17466743e-05 ...  1.19552014e-05
   1.13968645e-05  9.31302930e-06]
 ...
 [-2.39758197e-06 -4.82867245e-06 -5.01765999e-06 ... -8.04770207e-06
  -6.95136350e-06 -5.62409696e-06]
 [-5.18889146e-06 -5.62623291e-06 -5.71259579e-06 ... -1.10920564e-05
  -1.32929099e-05 -1.50107062e-05]
 [-6.90464231e-06 -8.82798031e-06 -1.17495374e-05 ... -5.71420651e-06
  -8.22560378e-06 -1.08611084e-05]]"
97,1,1,1,98,8,6,"[[ 1.30887811e-05  1.23527661e-05  1.17453756e-05 ...  8.01148508e-06
   8.39890345e-06  1.05405525e-05]
 [ 2.24806572e-05  2.27629316e-05  2.22228373e-05 ...  1.98673970e-05
   2.02656447e-05  1.98705457e-05]
 [ 1.04168348e-05  1.00993284e-05  7.44256431e-06 ...  3.02568287e-06
   2.57116244e-06  3.13339046e-06]
 ...
 [-4.37707831e-06 -3.31104388e-06 -3.03108891e-06 ... -1.24435301e-05
  -1.35127384e-05 -1.49040443e-05]
 [-1.64610265e-05 -1.55459311e-05 -1.34818738e-05 ... -1.06423304e-05
  -9.72710222e-06 -1.02634249e-05]
 [-1.24192447e-05 -1.15309340e-05 -9.14294560e-06 ... -5.47847367e-06
  -6.82491418e-06 -6.52968083e-06]]"
98,1,1,1,99,8,6,"[[ 8.58895237e-06  7.75178160e-06  1.14053255e-05 ...  1.36199124e-05
   1.22717274e-05  1.19743518e-05]
 [ 2.17636953e-05  2.15795208e-05  2.07962512e-05 ...  1.84770142e-05
   2.14958945e-05  2.28481858e-05]
 [ 1.30714634e-05  1.31129018e-05  1.14000786e-05 ...  6.18571994e-06
   4.48900937e-06  3.46006004e-06]
 ...
 [-5.56940950e-06 -6.88331011e-06 -8.40341090e-06 ... -9.51803850e-06
  -7.87046156e-06 -8.39009863e-06]
 [-1.07642718e-05 -1.25780780e-05 -1.57566355e-05 ... -1.64481917e-05
  -1.63016884e-05 -1.55554080e-05]
 [-6.90807610e-06 -8.23015762e-06 -9.07357753e-06 ... -9.66112566e-06
  -8.91721538e-06 -7.94632342e-06]]"
99,1,1,1,100,8,6,"[[ 9.36474044e-06  7.87386307e-06  8.72110195e-06 ...  1.02201939e-05
   1.34147513e-05  1.70443454e-05]
 [ 2.15330838e-05  2.29968628e-05  2.38482771e-05 ...  1.93936412e-05
   2.05869055e-05  2.05549277e-05]
 [ 7.50113713e-06  5.26463236e-06  5.36533935e-06 ...  4.53613711e-06
   4.49068148e-06  4.34988397e-06]
 ...
 [-1.61568369e-05 -1.76307512e-05 -1.68004281e-05 ... -1.33366866e-05
  -1.06209327e-05 -8.70824351e-06]
 [-4.50563903e-06 -4.37234212e-06 -6.36175082e-06 ... -9.05870729e-06
  -9.73764145e-06 -1.08472850e-05]
 [-9.75437979e-06 -1.00133466e-05 -1.00910675e-05 ... -1.08835084e-05
  -9.93363483e-06 -1.00214675e-05]]"
100,1,1,1,101,2,2,"[[-3.32889317e-06  7.68503378e-06  1.66722148e-05 ...  7.75709486e-06
   1.44451337e-06 -3.81008113e-06]
 [ 1.12829248e-05  1.03918337e-05  1.07929145e-05 ...  1.71503743e-05
   1.28562197e-05  1.16919182e-05]
 [ 6.75772890e-06  5.48179787e-06  6.22732750e-06 ...  1.03921038e-05
   9.52961818e-06  7.71030773e-06]
 ...
 [-1.46589637e-05 -1.92277785e-05 -2.20144630e-05 ... -7.00936823e-07
   2.86723775e-07 -9.53152096e-07]
 [-5.52592837e-06 -9.26671601e-06 -1.04971996e-05 ... -2.34332197e-06
  -1.76198535e-06 -3.08162066e-06]
 [-5.36639209e-06 -1.12823227e-05 -1.37729967e-05 ... -7.73020474e-06
  -3.40286374e-06 -8.28919292e-06]]"
101,1,1,1,102,2,2,"[[ 6.12057465e-06  5.92803144e-06  4.89320519e-06 ...  1.59121519e-05
   1.80220795e-05  1.68951738e-05]
 [ 1.33811955e-05  1.31027964e-05  8.17839191e-06 ...  4.01726938e-05
   3.70508133e-05  3.04516543e-05]
 [ 8.19095658e-06  6.36342656e-06  3.19838614e-06 ...  1.30664803e-05
   1.22263109e-05  1.12021307e-05]
 ...
 [ 2.07566563e-06  5.41492170e-07 -9.08411778e-07 ... -7.34921650e-06
  -1.15074390e-05 -1.57042014e-05]
 [-8.51061122e-06 -9.31545583e-06 -1.04487472e-05 ... -1.10728961e-05
  -1.04145829e-05 -8.76423928e-06]
 [-1.09510947e-05 -9.94087713e-06 -9.38280209e-06 ... -1.29960290e-05
  -1.75711575e-05 -2.03512700e-05]]"
102,1,1,1,103,2,2,"[[ 1.50960932e-05  1.14763470e-05  9.27129440e-06 ...  2.30098231e-05
   3.44594846e-05  3.79625126e-05]
 [ 2.38408829e-05  2.17480610e-05  2.15949949e-05 ...  2.37883487e-05
   2.14286538e-05  1.44824135e-05]
 [ 1.44290352e-05  1.57783561e-05  1.54800728e-05 ...  1.18202042e-05
   1.29423379e-05  1.37609231e-05]
 ...
 [-9.74468821e-06 -1.18060898e-05 -1.52594621e-05 ... -1.11301642e-05
  -9.24307369e-06 -9.10919334e-06]
 [-1.10933570e-05 -9.72552243e-06 -1.00421157e-05 ... -1.56392034e-05
  -1.69553787e-05 -1.84732980e-05]
 [-8.38168489e-06 -8.25456755e-06 -6.74616285e-06 ... -1.70657459e-05
  -1.22715683e-05 -9.74571049e-06]]"
103,1,1,1,104,2,2,"[[ 1.6931683e-05  1.7270711e-05  1.6897633e-05 ...  3.6999310e-07
   3.0134863e-06  8.0809968e-06]
 [ 2.5844467e-05  2.9270635e-05  2.8992858e-05 ...  1.0852392e-05
   1.7096800e-05  2.3905115e-05]
 [ 9.1816910e-06  1.1027240e-05  1.1722813e-05 ...  5.0162494e-06
   6.6889725e-06  8.5218926e-06]
 ...
 [-8.9348623e-06 -8.6718255e-06 -9.3040035e-06 ... -4.4014591e-06
  -2.8040295e-06 -1.6765098e-06]
 [-5.0300928e-06 -9.1641632e-06 -1.3347774e-05 ... -5.5426444e-06
  -4.4953395e-06 -2.5993882e-06]
 [-1.0298722e-05 -1.2111055e-05 -1.3025267e-05 ... -1.7210841e-06
  -1.0047722e-06 -3.1638936e-06]]"
104,1,1,1,105,2,2,"[[ 2.2610653e-05  2.4862878e-05  2.2257451e-05 ...  1.1307815e-05
   1.3561894e-05  1.5598243e-05]
 [ 9.4072357e-06  1.6412710e-05  2.3060607e-05 ...  2.0925590e-05
   2.1407717e-05  2.2972668e-05]
 [ 2.3848579e-06  3.6523231e-06  5.4788229e-06 ...  1.0202840e-05
   1.0311567e-05  1.0129546e-05]
 ...
 [-3.1658874e-06 -1.6518676e-06 -4.5281990e-06 ... -4.5659403e-06
  -7.8043531e-06 -1.1947501e-05]
 [-7.2064554e-06 -6.3741190e-06 -7.9425390e-06 ... -3.0298334e-06
  -4.0528771e-06 -6.7530350e-06]
 [-5.6375679e-06 -7.7072573e-06 -9.8893242e-06 ... -9.5192981e-06
  -1.1806780e-05 -1.6001693e-05]]"
105,1,1,1,106,4,3,"[[-1.75568331e-07  4.37184281e-06  1.17857689e-05 ...  5.30079378e-05
   2.26116590e-05  2.16470448e-06]
 [ 2.27573400e-05  2.11511051e-05  1.90295759e-05 ...  1.15253533e-05
   1.57978830e-05  1.82839758e-05]
 [ 1.09212060e-05  9.41341023e-06  9.79440392e-06 ...  2.12556711e-06
   2.27519536e-06  3.24121083e-06]
 ...
 [ 1.10932306e-05  1.44434052e-05  8.33464401e-06 ... -8.36405252e-06
  -1.07981205e-05 -1.16528327e-05]
 [-7.49069068e-06 -7.39237885e-06 -8.45564227e-06 ... -1.35157024e-05
  -1.27465773e-05 -1.23949067e-05]
 [ 8.08494769e-06  5.05702610e-06 -7.06568756e-07 ... -7.90965896e-06
  -9.61432124e-06 -7.32915896e-06]]"
106,1,1,1,107,4,3,"[[ 1.5774929e-05  1.6114971e-05  1.4143363e-05 ...  7.2702314e-05
   7.0129427e-05  6.7963316e-05]
 [ 2.1272906e-05  2.3849334e-05  2.6123093e-05 ...  2.0482899e-05
   2.1772496e-05  2.0382065e-05]
 [ 9.1407719e-06  7.7245495e-06  8.4605545e-06 ...  1.2865434e-05
   1.1051133e-05  9.2474511e-06]
 ...
 [-6.0549460e-06 -6.0302923e-06 -8.2464358e-06 ... -7.0430074e-06
  -7.0563042e-06 -9.7176444e-06]
 [-1.7695664e-06 -8.3488057e-06 -1.0961991e-05 ... -1.2168800e-06
  -9.1056108e-07  5.3172676e-07]
 [-6.2727980e-07 -2.0153270e-06 -6.6192924e-06 ... -8.1604112e-06
  -1.1742992e-05 -1.3018880e-05]]"
107,1,1,1,108,4,3,"[[ 1.60088475e-05  1.68859915e-05  1.86906436e-05 ... -3.74809332e-07
  -1.33727244e-05 -3.74055562e-05]
 [ 2.80147924e-05  3.05355534e-05  3.17502345e-05 ...  2.83031186e-05
   2.62377125e-05  2.42743154e-05]
 [ 1.36662484e-05  1.47517485e-05  1.59040010e-05 ...  1.39020904e-05
   1.16203810e-05  8.49703429e-06]
 ...
 [ 1.38643622e-06  1.22517315e-06 -2.63913034e-08 ... -1.78176924e-05
  -2.02925112e-05 -1.87296264e-05]
 [ 4.01442321e-06  1.88774914e-06 -2.35528250e-06 ... -9.66293283e-06
  -1.21843641e-05 -1.35469909e-05]
 [-6.45218233e-06 -5.71060673e-06 -6.74328339e-06 ... -2.50467292e-05
  -2.29295256e-05 -1.78228966e-05]]"
108,1,1,1,109,4,3,"[[ 1.2289770e-05  8.6875707e-06  7.1338686e-06 ...  2.0299000e-05
   2.5298314e-05  3.7464462e-05]
 [ 2.3626697e-05  2.0400294e-05  1.9811372e-05 ...  2.3865266e-05
   2.4138393e-05  2.5613619e-05]
 [ 1.1297403e-05  1.3460818e-05  1.3469627e-05 ...  1.3095366e-05
   1.3312020e-05  1.3617209e-05]
 ...
 [-9.1779102e-06 -9.0621797e-06 -8.4711719e-06 ... -5.4393145e-06
  -4.0033751e-06 -4.4247031e-06]
 [-7.2371299e-06 -7.2352959e-06 -5.8253604e-06 ... -6.3116195e-06
  -8.3760315e-06 -7.8144330e-06]
 [-7.0496840e-06 -6.5295476e-06 -6.3768603e-06 ... -7.0626811e-06
  -7.0367423e-06 -6.4681544e-06]]"
109,1,1,1,110,4,3,"[[ 1.64290650e-05  1.71379943e-05  1.71775719e-05 ... -1.15737139e-05
  -4.56846647e-06  4.45670321e-06]
 [ 2.21430073e-05  2.22062554e-05  2.24778050e-05 ...  1.58246858e-05
   1.66972095e-05  1.75405494e-05]
 [ 8.37046173e-06  8.63724745e-06  1.11213676e-05 ...  9.66417429e-06
   1.09945595e-05  9.48916204e-06]
 ...
 [-6.35153538e-06 -5.58758620e-06 -4.33925743e-06 ... -5.91937669e-06
  -7.57624139e-06 -8.94210007e-06]
 [-9.70538622e-06 -6.45887440e-06 -7.48689945e-06 ... -5.74344267e-06
  -5.44762270e-06 -4.10674511e-06]
 [-8.03479634e-06 -9.00726354e-06 -1.10516166e-05 ...  1.95104803e-06
  -1.86067211e-06 -7.88725811e-06]]"
110,1,1,1,111,5,5,"[[ 7.7353388e-06  1.4244967e-05  1.7000884e-05 ... -7.8335070e-05
  -6.7885856e-05 -3.9727998e-05]
 [ 1.1467327e-05  9.0574749e-06  9.0701651e-06 ...  5.7058505e-06
   3.5876644e-07 -1.1425786e-05]
 [ 4.1787902e-05  3.9535076e-05  3.2779666e-05 ...  1.1069852e-05
   1.0046124e-05  8.8325050e-06]
 ...
 [ 1.0161037e-06  7.0097747e-07 -1.2152915e-06 ... -1.4670370e-05
  -1.6133215e-05 -1.5574024e-05]
 [-7.9128213e-06 -3.8163485e-06 -2.3067901e-06 ... -1.4195120e-05
  -1.1701262e-05 -1.1054214e-05]
 [ 1.3521675e-05  2.0095840e-05  2.0484778e-05 ... -2.1156900e-05
  -2.4558667e-05 -2.6385482e-05]]"
111,1,1,1,112,5,5,"[[ 9.9563495e-06  1.7985569e-05  2.6218237e-05 ...  6.3497217e-05
   6.9155154e-05  6.9561203e-05]
 [ 3.1326079e-05  3.1709111e-05  3.2629272e-05 ...  5.9086084e-05
   5.5699307e-05  4.5239820e-05]
 [ 1.3089426e-05  1.2797871e-05  1.0932476e-05 ...  1.6729489e-05
   1.5428253e-05  1.2335586e-05]
 ...
 [-1.3321923e-05 -1.5093238e-05 -1.4933835e-05 ... -7.6941596e-06
  -6.7075130e-06 -3.3772440e-06]
 [-8.6246382e-06 -9.6480817e-06 -1.0787544e-05 ... -1.0647134e-05
  -9.0536541e-06 -7.8110297e-06]
 [-1.1551671e-05 -8.5280080e-06 -5.7691896e-06 ...  2.4248784e-05
   1.7145900e-05  1.1374834e-05]]"
112,1,1,1,113,5,5,"[[ 3.8061342e-05  3.8921928e-05  4.2488991e-05 ... -8.3280820e-06
  -1.5143047e-05  2.7606143e-06]
 [ 1.9258972e-05  2.0200268e-05  2.0789947e-05 ...  3.9346058e-05
   3.6830494e-05  3.4867859e-05]
 [ 2.5462396e-05  2.1922819e-05  1.6852633e-05 ...  5.2285386e-06
   6.0326897e-06  6.3867246e-06]
 ...
 [ 1.2189819e-05  1.3392808e-05  8.9681207e-06 ... -1.2729493e-05
  -1.1966096e-05 -1.0457334e-05]
 [-1.2603631e-05 -8.8219713e-06 -5.6633471e-06 ... -8.3275763e-06
  -6.8223289e-06 -5.8635501e-06]
 [ 6.5115564e-06  8.6235550e-06  8.0146419e-06 ... -2.2324359e-05
  -2.1172036e-05 -1.8377210e-05]]"
113,1,1,1,114,5,5,"[[ 8.06543358e-06  3.55331781e-06  2.04782827e-06 ... -1.10698493e-04
  -1.28321015e-04 -1.16600808e-04]
 [ 2.24782489e-05  2.39912406e-05  2.50907160e-05 ... -1.19940005e-05
  -1.36614390e-05 -1.14133099e-05]
 [ 1.24279341e-05  1.29338423e-05  1.12434373e-05 ...  1.80938914e-05
   1.68981878e-05  1.41095043e-05]
 ...
 [-7.75900480e-06 -4.48860237e-06 -3.05200751e-06 ... -1.52941038e-06
  -3.46086154e-06 -7.04295053e-06]
 [-9.73740498e-06 -8.99022689e-06 -7.65095137e-06 ... -1.31564084e-05
  -1.31772367e-05 -1.17448926e-05]
 [-1.44156384e-05 -1.40828552e-05 -1.35955652e-05 ... -3.45530884e-06
  -9.50021695e-06 -1.37574234e-05]]"
114,1,1,1,115,5,5,"[[ 1.4431648e-05  1.4995612e-05  1.4027635e-05 ...  3.1595562e-05
   3.0698844e-05  3.5562934e-05]
 [ 2.0803231e-05  2.0451886e-05  1.9982997e-05 ...  1.4704423e-05
   1.7213888e-05  2.1485830e-05]
 [ 6.3831385e-06  7.2279140e-06  6.2784561e-06 ... -5.1314560e-06
  -2.8599061e-06  9.7901773e-07]
 ...
 [-5.7089355e-06 -4.3675191e-06 -4.6578402e-06 ... -7.3174442e-06
  -9.4586785e-06 -1.2424156e-05]
 [-9.0583217e-06 -9.6265421e-06 -8.5058091e-06 ... -1.6669956e-05
  -1.5933172e-05 -1.2429055e-05]
 [-8.3969971e-06 -6.9020430e-06 -5.2644523e-06 ...  1.2362632e-05
   3.4146046e-06 -8.3643890e-06]]"
115,1,1,1,116,6,1,"[[ 1.8848576e-05  1.8081380e-05  1.7356460e-05 ...  1.4436773e-05
   1.3913228e-05  1.2500877e-05]
 [ 5.0676412e-05  5.0332997e-05  4.7330243e-05 ...  2.7203845e-05
   2.7216491e-05  2.7909877e-05]
 [ 1.1592987e-05  9.1928705e-06  8.9358846e-06 ...  5.0117997e-06
   6.9907155e-06  6.5137101e-06]
 ...
 [-1.0810788e-05 -6.2909689e-06 -2.6016460e-06 ... -1.1080993e-05
  -1.1112302e-05 -1.1044055e-05]
 [-1.3750349e-05 -1.4148331e-05 -1.3976415e-05 ... -1.0387650e-05
  -1.2580045e-05 -1.3525966e-05]
 [ 9.7668581e-06 -9.7615211e-06 -1.9070203e-05 ... -3.0131800e-06
  -4.5152265e-06 -5.7000607e-06]]"
116,1,1,1,117,6,1,"[[ 9.02329339e-06  1.01813930e-05  1.12986982e-05 ...  1.51202094e-05
   1.13037513e-05  1.06312673e-05]
 [ 7.11091343e-06  1.06293992e-05  1.33060767e-05 ...  6.05232026e-06
   1.42660247e-06 -4.46098056e-06]
 [ 8.24628569e-06  8.38880624e-06  1.03277825e-05 ...  7.02362786e-06
   1.33162748e-05  1.48017170e-05]
 ...
 [-4.79150413e-06 -7.50628578e-06 -1.09058819e-05 ... -1.00984416e-05
  -1.03036355e-05 -1.24405633e-05]
 [-7.48551247e-06 -9.06916102e-06 -9.35574099e-06 ... -9.07326921e-06
  -7.34571495e-06 -6.90465276e-06]
 [-4.97632573e-06 -7.69438248e-06 -9.38209814e-06 ... -1.01267528e-06
  -4.79050323e-06 -8.99326824e-06]]"
117,1,1,1,118,6,1,"[[ 1.92943189e-05  1.87907954e-05  1.60585605e-05 ...  3.08604212e-05
   1.85750341e-05  3.04798004e-06]
 [ 1.00363468e-06  1.01049250e-06  2.78681978e-06 ...  3.04979021e-05
   2.22778563e-05  1.15597504e-05]
 [ 7.32519948e-06  6.70208783e-06  5.90852096e-06 ...  1.23324053e-05
   1.02425283e-05  5.51745961e-06]
 ...
 [-1.02399081e-05 -9.75484818e-06 -9.12141149e-06 ... -2.60441084e-06
  -2.43178147e-06 -3.37014171e-07]
 [-9.21708124e-06 -9.72914313e-06 -9.88989814e-06 ... -5.13472696e-06
  -5.90293484e-06 -8.03836065e-06]
 [-6.65731613e-06 -7.95894812e-06 -8.67377457e-06 ...  1.91661366e-06
  -9.44179828e-06 -1.52270495e-05]]"
118,1,1,1,119,6,1,"[[ 1.8964933e-05  1.7111546e-05  1.7092530e-05 ...  8.7258086e-06
   1.0550732e-05  1.1601044e-05]
 [ 2.1909071e-05  2.1138070e-05  2.1159869e-05 ...  2.3149450e-05
   2.6891570e-05  3.0312325e-05]
 [ 2.5679221e-06  2.3565572e-06  4.7949457e-06 ... -1.6951561e-06
  -1.8848240e-06 -4.2227589e-06]
 ...
 [-8.1637063e-06 -8.7307990e-06 -9.9513927e-06 ... -6.8199859e-07
  -2.5553504e-06 -4.4492908e-06]
 [-1.1206803e-05 -1.2436247e-05 -1.3148516e-05 ... -1.1059088e-05
  -1.5183028e-05 -1.5179122e-05]
 [-9.8906048e-06 -8.7267626e-06 -7.8008870e-06 ...  6.3729431e-06
   8.5380934e-06  9.7339334e-06]]"
119,1,1,1,120,6,1,"[[-1.31785339e-06 -1.07286724e-05 -1.47307210e-05 ...  2.63158236e-05
   2.73173373e-05  2.56180101e-05]
 [ 1.60709224e-05  1.48927693e-05  1.49468669e-05 ...  1.95460962e-05
   1.62007291e-05  1.06779826e-05]
 [ 1.03951525e-05  1.01952292e-05  1.03191142e-05 ... -6.21779645e-06
  -7.28042642e-06 -4.81482402e-06]
 ...
 [-1.34089751e-05 -1.21836574e-05 -1.15045987e-05 ... -4.94106644e-06
  -1.03297916e-05 -1.27488520e-05]
 [-1.69060695e-05 -1.10926749e-05 -6.97731184e-06 ... -1.57090544e-05
  -1.77777183e-05 -1.75833247e-05]
 [-9.06404603e-06 -9.06366768e-06 -1.06242296e-05 ... -3.28846272e-06
  -1.80610514e-05 -2.36173837e-05]]"
120,1,1,1,121,8,4,"[[ 1.52012108e-05  1.29321234e-05  1.08736685e-05 ...  9.56266467e-06
   9.31218074e-06  1.03033481e-05]
 [ 1.86207617e-05  1.71186566e-05  1.80140760e-05 ...  2.10999224e-05
   2.18292607e-05  2.14400789e-05]
 [ 9.00132818e-06  1.00916104e-05  9.08475431e-06 ...  1.40742668e-05
   8.84921701e-06  4.67052541e-06]
 ...
 [-8.47159845e-06 -8.09109224e-06 -8.83994471e-06 ... -9.90975786e-06
  -1.06022171e-05 -1.08071399e-05]
 [-1.32982805e-05 -1.33337544e-05 -1.32983705e-05 ... -1.68824881e-05
  -1.74682846e-05 -1.32096684e-05]
 [-1.46647631e-06  7.85849068e-07  2.11806241e-06 ... -1.61217722e-05
  -1.22048959e-05 -6.98862141e-06]]"
121,1,1,1,122,8,4,"[[ 5.24864390e-06  7.68440532e-06  1.00605548e-05 ...  8.05521995e-06
   1.16615429e-05  1.73344688e-05]
 [ 2.05313954e-05  2.02014526e-05  2.06771274e-05 ...  1.88035901e-05
   2.13578223e-05  2.39137025e-05]
 [ 1.06396792e-05  1.24786056e-05  1.26608093e-05 ...  1.17325826e-05
   1.31406869e-05  1.31927300e-05]
 ...
 [ 1.30103235e-05  1.45108197e-05  1.37655034e-05 ... -8.43083126e-06
  -8.35425908e-06 -8.43050020e-06]
 [-1.50016058e-05 -1.33158455e-05 -1.19789656e-05 ... -1.51295835e-05
  -1.72379005e-05 -1.83417342e-05]
 [-7.58069746e-06 -4.40557869e-06 -3.13419218e-06 ... -5.02844614e-06
  -5.48819571e-06 -3.69496661e-06]]"
122,1,1,1,123,8,4,"[[ 8.6630944e-06  9.7586517e-06  9.2661703e-06 ...  9.7426719e-06
   8.1305507e-06  5.3089952e-06]
 [ 2.3447774e-05  2.5072704e-05  2.6321271e-05 ...  1.7108503e-05
   1.7838522e-05  1.8191591e-05]
 [ 1.1453961e-05  1.0408033e-05  9.5137484e-06 ...  1.0399203e-05
   1.2494329e-05  1.3388059e-05]
 ...
 [-1.7997072e-05 -2.1823475e-05 -2.2857468e-05 ... -7.7123941e-06
  -9.8843384e-06 -1.1147462e-05]
 [-6.9789252e-07  9.7810208e-08 -9.1421828e-07 ... -9.7697848e-06
  -8.7350227e-06 -8.9443829e-06]
 [-5.6895788e-06 -5.9469248e-06 -7.2518378e-06 ...  5.0109084e-06
   4.2427246e-06  2.7012563e-06]]"
123,1,1,1,124,8,4,"[[ 9.74573231e-06  9.94772381e-06  1.13076130e-05 ...  2.05836732e-05
   2.38272332e-05  2.68135591e-05]
 [ 1.63121967e-05  1.77738129e-05  1.65471247e-05 ...  2.20233760e-05
   2.44794883e-05  2.79497654e-05]
 [ 9.74206978e-06  9.72843645e-06  9.44490421e-06 ...  4.66850406e-06
   3.54209487e-06  4.13919224e-06]
 ...
 [-1.65231359e-05 -6.86631165e-06  1.68396366e-06 ... -8.17588716e-06
  -8.53298206e-06 -6.84149973e-06]
 [-1.05450235e-05 -1.05294448e-05 -8.65039874e-06 ... -1.12521839e-05
  -8.23063601e-06 -6.39850259e-06]
 [-9.06879632e-06 -8.61318131e-06 -6.98485337e-06 ...  2.25908525e-06
   4.07438029e-06  6.28594626e-06]]"
124,1,1,1,125,8,4,"[[ 1.56769784e-05  1.55806465e-05  1.41160717e-05 ...  9.25544373e-06
   1.03597831e-05  1.17903928e-05]
 [ 2.53118378e-05  2.42266869e-05  2.37058357e-05 ...  1.75685673e-05
   1.67506223e-05  1.93449487e-05]
 [ 1.36305816e-05  1.46386601e-05  1.36757735e-05 ... -1.38960313e-05
   1.22663107e-06  1.00390826e-05]
 ...
 [-5.48000480e-06 -5.93186905e-06 -7.41539225e-06 ... -7.46578417e-06
  -1.00545803e-05 -9.82711754e-06]
 [-1.41950259e-05 -1.18499747e-05 -1.06838070e-05 ... -1.10670189e-05
  -1.13862134e-05 -1.21096627e-05]
 [-6.39126301e-06 -5.32521017e-06 -6.45692216e-06 ... -2.33901164e-06
  -3.92086304e-06 -5.02656667e-06]]"
125,1,1,1,126,2,1,"[[ 1.56934475e-05  1.42270337e-05  1.58300245e-05 ...  1.31831466e-05
   1.32992136e-05  1.12153912e-05]
 [ 1.18268563e-05  6.62067350e-06  5.02335615e-06 ...  3.26305744e-05
   3.24955072e-05  2.82089331e-05]
 [ 4.91588980e-06  3.81682366e-06  6.80130188e-06 ... -3.79109156e-06
   4.72599777e-06  9.05712659e-06]
 ...
 [-1.46409775e-05 -1.82427266e-05 -2.01681723e-05 ... -1.09428538e-05
  -9.57758766e-06 -8.62869183e-06]
 [-4.12419467e-06 -7.27659653e-06 -1.04650535e-05 ...  2.93359994e-06
   1.62245794e-06 -1.68356723e-06]
 [-1.19500000e-05 -1.95743469e-05 -2.06306031e-05 ... -9.02178181e-06
  -4.05347691e-06 -1.03928178e-05]]"
126,1,1,1,127,2,1,"[[ 2.75633047e-05  3.43638676e-05  3.82057951e-05 ...  9.35123626e-06
   6.84719407e-06  2.82993915e-06]
 [ 2.85500155e-05  2.71073623e-05  2.66063362e-05 ...  2.95068344e-06
   3.23990730e-06  4.47606999e-06]
 [ 8.81708729e-06  9.49428340e-06  9.82573783e-06 ...  1.53260917e-05
   1.75632140e-05  1.70159619e-05]
 ...
 [-1.12520001e-05 -1.17226373e-05 -1.11818135e-05 ...  3.82192184e-06
   1.48439278e-06 -1.50954190e-06]
 [-9.23051266e-06 -9.71573718e-06 -9.75469084e-06 ... -1.72004857e-05
  -1.35494656e-05 -1.35303553e-05]
 [-6.21701793e-06 -5.38668837e-06 -4.83567464e-06 ...  7.16667500e-06
  -5.25078076e-06 -1.58174989e-05]]"
127,1,1,1,128,2,1,"[[ 1.11766039e-05  1.40637330e-05  1.58432340e-05 ... -4.21314689e-06
  -5.10809923e-06  9.80030222e-07]
 [ 2.68275599e-05  2.71811223e-05  2.72019752e-05 ... -5.07819532e-05
  -4.60677511e-05 -2.92723598e-05]
 [ 1.19007609e-05  1.26394807e-05  1.30955477e-05 ...  1.88636022e-05
   2.27471355e-05  2.24985470e-05]
 ...
 [-9.45562442e-06 -9.86409304e-06 -9.60739635e-06 ... -3.98925380e-07
   3.81317591e-06  9.07101912e-06]
 [-9.87000203e-06 -9.52736173e-06 -9.94139828e-06 ... -9.67709730e-06
  -1.06845355e-05 -1.10596729e-05]
 [-9.66822608e-06 -1.11390600e-05 -1.17604741e-05 ...  9.98842279e-06
   1.91423915e-05  2.58882155e-05]]"
128,1,1,1,129,2,1,"[[ 4.32579436e-05  5.26016556e-05  5.02808180e-05 ...  9.69802659e-06
   1.05152758e-05  1.11903091e-05]
 [ 2.21691807e-05  2.40004392e-05  2.57504107e-05 ...  1.51162994e-05
   1.50595324e-05  1.79760864e-05]
 [ 1.30825383e-05  1.57393806e-05  1.53701640e-05 ...  1.27760477e-05
   1.30715116e-05  1.31128145e-05]
 ...
 [-5.70071688e-06 -5.41582722e-06 -9.33874435e-06 ... -6.03254057e-06
  -7.05547745e-06 -7.04393915e-06]
 [-1.00058742e-06 -1.31075183e-06 -4.56919906e-06 ... -1.10827950e-05
  -9.73602164e-06 -1.00316784e-05]
 [ 6.36190316e-06  7.58329497e-06  5.92599736e-06 ... -8.39456243e-06
  -8.53892561e-06 -6.61277363e-06]]"
129,1,1,1,130,2,1,"[[ 3.08929193e-05  3.21014959e-05  3.40603910e-05 ...  2.93089852e-05
   7.74361979e-06 -1.09492530e-05]
 [ 1.64696412e-05  1.61688658e-05  1.70245403e-05 ...  1.81425694e-05
   1.19836795e-05  8.91678246e-06]
 [ 8.05751642e-06  8.76183094e-06  9.95775736e-06 ...  3.55005432e-05
   3.31035444e-05  2.99462808e-05]
 ...
 [-7.71929263e-06 -6.68269740e-06 -4.59044895e-06 ... -9.58189776e-06
  -1.19676442e-05 -1.30932003e-05]
 [-1.37473680e-05 -1.37797797e-05 -1.25589177e-05 ... -7.62489617e-06
  -9.85956467e-06 -1.08006770e-05]
 [-1.22890128e-06 -4.90008517e-07  8.57555278e-07 ... -1.96821165e-05
  -5.51609855e-06  8.36847812e-06]]"
130,1,1,1,131,4,2,"[[-3.7610967e-06  9.8139571e-07  5.4903162e-06 ...  1.9567278e-05
   2.1157644e-05  2.0694646e-05]
 [ 1.7907712e-05  1.8420016e-05  1.9881112e-05 ...  2.6036731e-05
   2.6516735e-05  2.3477569e-05]
 [ 8.9851073e-06  1.0404977e-05  1.1448445e-05 ...  7.9535066e-06
   7.3790638e-06  7.6516608e-06]
 ...
 [-3.3116044e-06 -3.0305287e-06 -2.7892272e-06 ... -1.2626519e-06
  -1.6450143e-06 -4.9064961e-06]
 [-1.4601109e-05 -1.2412926e-05 -1.0348470e-05 ... -9.7885595e-06
  -7.7135601e-06 -5.5739815e-06]
 [-8.5024425e-07 -4.3573523e-06 -7.1939421e-06 ... -3.8324997e-06
  -3.7026359e-06 -4.1285389e-06]]"
131,1,1,1,132,4,2,"[[ 7.3754509e-06  8.6583568e-06  9.8002283e-06 ...  1.3376620e-06
   4.3568216e-06  5.8571841e-06]
 [ 2.2734124e-05  2.2697135e-05  2.2511111e-05 ...  1.4448158e-05
   1.3753321e-05  1.7562910e-05]
 [ 1.0244060e-05  1.0716456e-05  1.0582356e-05 ...  6.2442637e-06
   4.3566315e-06  6.1916626e-06]
 ...
 [-7.4122458e-06 -7.2844409e-06 -6.5196127e-06 ... -5.4464508e-06
  -7.4140994e-06 -1.0291318e-05]
 [-8.0068749e-06 -1.2638181e-05 -1.4805661e-05 ... -1.5889675e-05
  -1.7115548e-05 -1.6828588e-05]
 [-1.0207214e-05 -9.8615428e-06 -9.2013543e-06 ... -9.5664127e-06
  -1.2428810e-05 -1.6610511e-05]]"
132,1,1,1,133,4,2,"[[ 7.3683786e-06  1.0299618e-05  1.2667455e-05 ...  1.4873497e-05
   1.4705998e-05  1.4463425e-05]
 [ 1.8460811e-05  1.8911762e-05  2.0247580e-05 ...  1.8117236e-05
   1.8323874e-05  1.6967328e-05]
 [ 1.4305032e-05  1.3078023e-05  1.3440715e-05 ...  8.6023738e-06
   7.8129106e-06  6.5154372e-06]
 ...
 [-4.3224254e-06 -3.8109424e-06 -5.2842474e-06 ... -5.6987369e-06
  -6.9036282e-06 -6.4516125e-06]
 [-1.2163069e-05 -1.0299111e-05 -1.1293357e-05 ... -1.8792341e-06
  -1.8509631e-06 -4.6721937e-07]
 [-4.8207135e-06 -3.0196609e-06 -3.0228666e-06 ... -5.7732154e-07
  -3.5878188e-06 -9.1459715e-06]]"
133,1,1,1,134,4,2,"[[ 2.01673038e-06 -2.17160178e-07 -2.23635107e-06 ...  2.39249821e-05
   8.61988667e-07 -2.36632204e-05]
 [ 1.44355008e-05  1.26515188e-05  1.50894948e-05 ...  2.42909646e-05
   1.92214848e-05  1.54826575e-05]
 [ 1.31067336e-05  1.30778235e-05  1.34037591e-05 ...  1.06163143e-05
   1.16846441e-05  1.31509769e-05]
 ...
 [-5.03362389e-06 -5.92887682e-06 -7.93837808e-06 ... -1.81179839e-05
  -1.83602970e-05 -1.70426229e-05]
 [-2.32931416e-06 -5.15639931e-06 -6.40139979e-06 ... -1.51109143e-05
  -1.28731672e-05 -1.19350370e-05]
 [-9.76834963e-06 -8.06781827e-06 -5.29703675e-06 ... -2.25078438e-05
  -2.21786577e-05 -2.18365949e-05]]"
134,1,1,1,135,4,2,"[[ 1.4663143e-05  1.6288988e-05  1.9468540e-05 ...  5.1174367e-05
   5.9348844e-05  5.7407611e-05]
 [ 1.8205568e-05  1.6044551e-05  1.4436006e-05 ...  1.6708615e-05
   1.7232231e-05  1.7084079e-05]
 [ 6.6366479e-06  7.6079523e-06  9.0590602e-06 ...  7.3573769e-06
   8.8246379e-06  8.7440148e-06]
 ...
 [-8.3665236e-06 -1.1092799e-05 -1.3775179e-05 ...  1.7617258e-06
   5.5576879e-07 -3.2829843e-07]
 [-4.3944319e-06 -5.8198166e-06 -7.0808051e-06 ... -7.2833600e-06
  -9.4924244e-06 -1.2762217e-05]
 [-6.3655098e-06 -6.9853136e-06 -7.7078257e-06 ... -3.6057293e-06
  -3.0360118e-06 -3.3409676e-06]]"
135,1,1,1,136,5,3,"[[ 2.65404906e-05  6.73619725e-05  1.00352074e-04 ... -1.29622276e-04
  -1.25822844e-04 -5.59651417e-05]
 [ 2.28135468e-05  2.55160066e-05  2.33184692e-05 ...  2.52013488e-05
   2.42991719e-05  2.15165164e-05]
 [ 1.51326922e-05  1.84981036e-05  2.02119409e-05 ...  1.16493738e-05
   1.10685869e-05  1.28705105e-05]
 ...
 [ 5.29755653e-06  1.64026460e-05  2.23647658e-05 ... -1.17395157e-05
  -1.11650070e-05 -1.22547317e-05]
 [-2.12304872e-06 -1.68331178e-06 -2.34238269e-06 ... -8.05315904e-06
  -8.91474156e-06 -1.08462182e-05]
 [ 1.37883617e-05  2.78551452e-05  2.99139083e-05 ... -1.84594464e-05
  -1.48269792e-05 -6.61679724e-06]]"
136,1,1,1,137,5,3,"[[ 1.20194527e-05  1.64594694e-05  1.98565522e-05 ...  2.85718979e-05
   2.03246709e-05  2.41953985e-05]
 [ 2.07851372e-05  1.94667409e-05  2.40805239e-05 ...  2.01121493e-05
   1.98371599e-05  1.88839222e-05]
 [ 1.28474985e-05  1.41151204e-05  1.49751768e-05 ...  3.02285639e-06
  -6.34718020e-08 -2.76027868e-06]
 ...
 [-1.54082886e-06 -6.01264537e-06 -7.07529807e-06 ... -6.60631713e-06
  -7.30361899e-06 -7.09501865e-06]
 [ 6.21087156e-06  3.38684958e-06 -3.61922844e-06 ... -9.39031179e-06
  -1.74697034e-05 -2.39067012e-05]
 [-6.14356395e-06 -7.72553722e-06 -9.27676138e-06 ... -9.68975473e-06
  -1.21580169e-05 -1.00067500e-05]]"
137,1,1,1,138,5,3,"[[ 1.0624478e-05  1.9105970e-05  2.4624111e-05 ... -5.5972032e-05
  -2.4909705e-05  1.9876879e-05]
 [ 2.7487542e-05  2.7195170e-05  2.6965170e-05 ...  3.4596465e-05
   3.2217267e-05  2.8596360e-05]
 [ 1.1146638e-05  1.1901571e-05  1.2192914e-05 ...  1.5100990e-05
   1.4666076e-05  1.3240045e-05]
 ...
 [-9.3061662e-06 -1.1349487e-05 -1.2889154e-05 ... -9.0805288e-06
  -8.3786535e-06 -9.5948781e-06]
 [-1.1279300e-05 -1.3330081e-05 -1.5902515e-05 ... -4.3323043e-06
  -5.3615240e-06 -7.4608947e-06]
 [-8.1013804e-06 -8.4582671e-06 -8.6243890e-06 ... -1.6133805e-05
  -1.3010138e-05 -1.1242047e-05]]"
138,1,1,1,139,5,3,"[[ 1.30793205e-05  1.00590632e-05  7.59378008e-06 ...  4.12774971e-05
   4.58361974e-05  2.93163503e-05]
 [ 2.18348287e-05  2.01716030e-05  2.01867442e-05 ...  2.13648727e-05
   1.64772682e-05  9.73485385e-06]
 [ 9.49851437e-06  8.11272457e-06  8.44698479e-06 ...  1.05315630e-05
   8.05395393e-06  4.90200000e-06]
 ...
 [-8.83126995e-06 -9.74033628e-06 -8.98726194e-06 ... -4.27084706e-06
  -8.02257637e-06 -1.05053805e-05]
 [-8.42340978e-06 -7.47008380e-06 -5.48127991e-06 ... -4.56997213e-06
  -4.75430988e-06 -4.34843923e-06]
 [-5.69551958e-06 -5.27237171e-06 -4.87481020e-06 ... -1.01820806e-05
  -1.37497391e-05 -2.15783602e-05]]"
139,1,1,1,140,5,3,"[[ 1.2925772e-05  1.4000380e-05  1.1151350e-05 ...  1.1169659e-05
   1.9456838e-05  7.3370111e-06]
 [ 1.7101691e-05  1.9442485e-05  2.1727203e-05 ...  9.6907206e-06
   1.6466021e-05  2.1113077e-05]
 [ 6.9143903e-06  7.6296783e-06  6.6600824e-06 ...  1.5613197e-05
   1.3563742e-05  9.9499402e-06]
 ...
 [-9.8954217e-07 -1.9160436e-06 -3.1145100e-06 ... -5.7109310e-06
  -6.0000466e-06 -7.6077640e-06]
 [-8.9955483e-06 -9.4289435e-06 -9.7045840e-06 ... -7.3970041e-06
  -1.0568559e-05 -1.1174713e-05]
 [-8.8405350e-06 -9.2853343e-06 -8.0269892e-06 ... -9.9128256e-06
  -1.1788040e-05 -1.3531329e-05]]"
140,1,1,1,141,6,4,"[[ 2.2283884e-05  2.3143713e-05  2.1176649e-05 ...  2.5044405e-05
   2.1743199e-05  1.7030616e-05]
 [ 3.8544011e-05  3.4357032e-05  3.1228923e-05 ...  2.0143556e-05
   2.2889151e-05  2.4215135e-05]
 [ 2.3844032e-05  3.2591892e-05  3.9629125e-05 ...  8.9096020e-06
   1.6497810e-05  2.9662522e-05]
 ...
 [-7.8834082e-06 -8.9716495e-06 -8.4123794e-06 ... -1.7895954e-05
  -2.2443839e-05 -2.5622565e-05]
 [-9.0357007e-06 -1.0874828e-05 -9.7566262e-06 ... -1.8224539e-05
  -2.2266508e-05 -2.4498315e-05]
 [ 2.8867917e-06  3.6004315e-06  3.3755864e-06 ... -1.3250513e-05
  -3.7155380e-05 -5.2822135e-05]]"
141,1,1,1,142,6,4,"[[ 4.2903889e-06  7.1489089e-06  1.0368809e-05 ... -9.6443200e-06
  -5.7393413e-06 -1.0248136e-07]
 [ 1.8739502e-05  1.9601233e-05  1.8672177e-05 ...  4.6559517e-06
   8.9780988e-06  1.5055280e-05]
 [ 6.2345421e-06  5.2578080e-06  4.5177908e-06 ...  1.0095569e-05
   1.1086703e-05  1.1663791e-05]
 ...
 [-7.2247549e-06 -8.3618124e-06 -1.0057434e-05 ... -2.2327852e-06
  -7.2206958e-06 -1.0149225e-05]
 [-1.6751115e-05 -1.8230005e-05 -1.8843570e-05 ... -1.3314279e-05
  -1.5100879e-05 -1.5111931e-05]
 [-1.0402940e-05 -1.0187447e-05 -1.0029714e-05 ... -1.5912080e-06
  -5.4798115e-06 -8.9781533e-06]]"
142,1,1,1,143,6,4,"[[ 1.2587550e-05  1.4410019e-05  1.3568362e-05 ...  1.5997704e-05
   1.4593940e-05  1.2420047e-05]
 [ 2.2420287e-05  2.3157098e-05  2.1831938e-05 ...  2.0858290e-05
   2.0843021e-05  1.8146357e-05]
 [ 8.5035590e-06  9.8052824e-06  9.7401398e-06 ... -9.9569502e-07
  -1.4911470e-05 -4.5909113e-05]
 ...
 [-1.7713204e-05 -1.7350172e-05 -1.3772556e-05 ...  1.1600439e-06
   2.1927160e-06  3.0258284e-06]
 [-1.4090827e-05 -1.4033416e-05 -1.2456019e-05 ... -1.1613676e-05
  -1.1141046e-05 -9.7526799e-06]
 [-9.7498805e-06 -9.7207594e-06 -8.8580964e-06 ...  1.9677405e-05
   5.8178775e-06 -8.3333853e-06]]"
143,1,1,1,144,6,4,"[[ 7.25937616e-06  1.04078681e-05  1.02568383e-05 ...  3.12526254e-06
   3.02963940e-06  5.09319852e-06]
 [ 2.00211834e-05  1.84785968e-05  1.97484715e-05 ...  2.34277559e-05
   2.31608410e-05  2.30169244e-05]
 [ 1.77939455e-05  1.57841969e-05  1.45827462e-05 ...  4.14340775e-06
   3.69142958e-06  4.36255232e-06]
 ...
 [-1.55429771e-05 -1.37819843e-05 -1.09964813e-05 ... -1.23607224e-05
  -1.24806875e-05 -1.34013935e-05]
 [-1.46290586e-05 -1.11223944e-05 -9.25080531e-06 ... -1.22748543e-05
  -1.66518366e-05 -1.68426741e-05]
 [-8.23381561e-06 -1.04071278e-05 -1.10748988e-05 ... -4.67938435e-06
  -5.68573660e-06 -5.72794852e-06]]"
144,1,1,1,145,6,4,"[[ 9.77893160e-06  1.05091030e-05  1.24225071e-05 ...  1.68025035e-05
   1.40556467e-05  1.19882025e-05]
 [ 2.12229752e-05  2.24129326e-05  2.38330358e-05 ...  2.27077217e-05
   2.10517937e-05  2.25826825e-05]
 [ 9.00650866e-06  8.82365021e-06  9.37630284e-06 ...  1.80320676e-05
   2.46118398e-05  3.54709664e-05]
 ...
 [-4.39634277e-06 -4.18336549e-06 -4.06052823e-06 ... -8.39965560e-06
  -9.83404789e-06 -1.18661355e-05]
 [-8.48959007e-06 -9.26188204e-06 -1.04277178e-05 ... -1.71293668e-05
  -2.03808395e-05 -2.23567458e-05]
 [-7.01655927e-06 -6.63668425e-06 -6.60493697e-06 ... -1.02299919e-06
  -6.15466661e-06 -1.78186310e-05]]"
145,1,1,1,146,8,5,"[[ 2.2273027e-05  3.2367312e-05  3.4762394e-05 ...  2.4087174e-05
   2.9899249e-05  4.0182062e-05]
 [ 2.3832259e-05  2.3762608e-05  2.2717284e-05 ...  5.3063341e-06
   2.0777341e-05  2.8315664e-05]
 [ 5.1157491e-05  2.7196096e-05  1.4366384e-07 ...  1.5481832e-05
   1.3768290e-05  1.4650517e-05]
 ...
 [-8.7578164e-06 -8.6243481e-06 -8.4226094e-06 ... -3.1976899e-07
  -3.5152212e-07  1.6116658e-06]
 [-3.8892749e-06 -5.8752034e-06 -6.5799841e-06 ... -9.8979963e-06
  -9.7223474e-06 -1.0936852e-05]
 [-9.6045949e-07  5.6332456e-06  6.8200002e-06 ...  1.2653018e-05
   1.9099931e-05  2.6933239e-05]]"
146,1,1,1,147,8,5,"[[ 1.46808779e-05  1.52312850e-05  1.41654145e-05 ... -4.96794200e-05
  -1.43974667e-05  2.11150200e-05]
 [ 2.05927736e-05  2.08091551e-05  2.11888928e-05 ...  6.63881610e-06
   3.99101765e-07  3.35602908e-06]
 [ 3.90104060e-06  4.00611725e-06  6.01923330e-06 ... -4.16522255e-07
  -1.29585965e-06 -9.80534651e-07]
 ...
 [-4.79395658e-06 -4.38359348e-06 -5.08755693e-06 ... -9.88850388e-06
  -1.07719352e-05 -9.74723571e-06]
 [-3.68396013e-06 -4.59293187e-06 -6.62590264e-06 ... -1.36488952e-05
  -1.26887262e-05 -1.21922967e-05]
 [-3.92269567e-06 -3.91027925e-06 -6.15149747e-06 ... -6.01532383e-06
  -1.98341991e-06  2.33870446e-06]]"
147,1,1,1,148,8,5,"[[ 4.0190712e-06 -1.0886409e-06 -1.6692794e-06 ...  2.2719682e-05
   1.5802152e-05  1.1221694e-05]
 [ 2.1166150e-05  1.9497467e-05  1.9815279e-05 ...  1.8137127e-05
   1.3660715e-05  1.0002378e-05]
 [ 1.1068004e-05  1.0642264e-05  9.5785954e-06 ...  2.0454680e-05
   2.1688957e-05  2.3399618e-05]
 ...
 [-5.0313715e-06 -6.5254212e-06 -7.5696553e-06 ... -7.2859129e-06
  -5.9237609e-06 -5.1946345e-06]
 [-8.3889672e-06 -9.1389093e-06 -9.7323364e-06 ... -1.0022586e-05
  -1.0638994e-05 -1.2107863e-05]
 [-6.3925727e-06 -6.1411761e-06 -7.2078010e-06 ... -4.9716391e-06
  -3.9100551e-06 -1.9912252e-06]]"
148,1,1,1,149,8,5,"[[ 6.37262838e-06  5.93815048e-06  6.22037896e-06 ...  1.88446813e-06
  -1.62078468e-05 -3.13248056e-05]
 [ 1.54980953e-05  1.48665358e-05  1.36727631e-05 ...  3.09562674e-05
   2.71724657e-05  1.83694392e-05]
 [ 1.23463178e-05  1.21975645e-05  1.12307216e-05 ...  2.98519672e-06
   8.25789812e-06  7.26278131e-06]
 ...
 [-3.22060578e-06 -3.12073985e-06 -2.51406459e-06 ... -1.39164886e-05
  -1.56922797e-05 -1.84629935e-05]
 [-1.13617461e-05 -9.97950792e-06 -6.52115477e-06 ... -1.22485599e-05
  -1.06601410e-05 -8.81785036e-06]
 [-6.94349819e-06 -7.15492752e-06 -7.05675620e-06 ... -1.25613642e-05
  -2.74374888e-05 -3.92807269e-05]]"
149,1,1,1,150,8,5,"[[ 7.66849371e-06  5.69285521e-06  4.01209809e-06 ... -1.81938576e-05
   2.30227597e-05  4.93429980e-05]
 [ 2.28742265e-05  2.15923919e-05  2.05606939e-05 ...  3.24724642e-05
   3.09433817e-05  2.71110530e-05]
 [ 1.36824783e-05  1.51071645e-05  1.46599323e-05 ...  2.10619801e-05
   2.06410532e-05  2.09097543e-05]
 ...
 [-9.83978134e-06 -1.10430065e-05 -1.32675232e-05 ...  1.92655752e-05
   1.97481768e-05  1.48859608e-05]
 [-6.45485170e-06 -8.82833592e-06 -1.07833548e-05 ... -3.25747737e-06
  -5.16440241e-06 -6.17067917e-06]
 [-8.71649172e-06 -8.07109154e-06 -7.44818499e-06 ...  2.97863626e-05
   3.42763306e-05  3.12347111e-05]]"
150,1,1,2,1,2,3,"[[ 3.70720772e-05  3.23621352e-05  3.48420326e-05 ...  1.30675635e-05
   1.59400552e-05  1.76227550e-05]
 [ 1.92693897e-05  2.04128482e-05  2.11362894e-05 ... -1.10937581e-05
  -4.71028852e-06  5.34041510e-06]
 [ 1.22690415e-06  1.97782629e-06  5.61635261e-06 ...  4.36722758e-06
   5.84684449e-06  7.49971696e-06]
 ...
 [-8.16163538e-06 -9.43867417e-06 -8.54350674e-06 ...  9.86720352e-07
   2.29037391e-06  1.36875076e-06]
 [-9.26655139e-06 -9.75447529e-06 -8.52737776e-06 ... -6.40589406e-06
  -4.19626940e-06 -2.74749846e-06]
 [-9.50129652e-06 -8.70434269e-06 -5.40849351e-06 ... -3.70190492e-06
   5.51272365e-07  2.57361989e-06]]"
151,1,1,2,2,2,3,"[[ 1.71024622e-05  1.64700978e-05  1.18221697e-05 ...  7.21878905e-06
  -6.04505249e-06 -2.28309837e-05]
 [ 1.52034372e-05  1.40073143e-05  1.27789335e-05 ...  1.41507326e-05
   1.88774648e-05  2.29562593e-05]
 [ 1.19003098e-05  1.26399727e-05  1.30950148e-05 ...  9.24681444e-06
   1.01453043e-05  1.12603257e-05]
 ...
 [-2.29210127e-06  1.01035482e-06  2.93553330e-06 ...  1.96605060e-06
  -3.21295056e-06 -8.18044555e-06]
 [-9.14482916e-06 -5.49170863e-06 -2.05694505e-06 ... -6.59431635e-06
  -9.46995260e-06 -1.26731520e-05]
 [-1.02772819e-05 -8.82617405e-06 -6.77359958e-06 ... -1.14447867e-05
  -1.39832418e-05 -1.70377134e-05]]"
152,1,1,2,3,2,3,"[[ 1.6238231e-05  1.5655496e-05  6.9838838e-06 ... -4.3163832e-06
   9.8531755e-06  2.1356907e-05]
 [ 3.0957206e-05  2.4571140e-05  2.0949516e-05 ...  3.4821704e-05
   3.5597273e-05  3.5570836e-05]
 [ 1.0115579e-05  1.1215454e-05  1.3096264e-05 ...  9.5840860e-06
   9.5880368e-06  8.3953619e-06]
 ...
 [-8.6968494e-06 -9.0563835e-06 -9.2941700e-06 ... -2.1172430e-06
  -6.0353709e-06 -8.0556547e-06]
 [-1.4934484e-05 -1.6465821e-05 -1.6432645e-05 ... -8.1191374e-06
  -8.7007229e-06 -8.3838859e-06]
 [-8.8886172e-06 -7.3058964e-06 -6.6470470e-06 ... -7.4355717e-06
  -6.6668636e-06 -6.8350337e-06]]"
153,1,1,2,4,2,3,"[[-2.8896291e-06  2.0474028e-05  1.7286528e-05 ...  3.0297218e-05
   3.3063912e-05  3.6226116e-05]
 [ 1.3204963e-05  1.4094856e-05  1.1726381e-05 ...  3.0468371e-05
   2.8027691e-05  2.2796268e-05]
 [ 7.0943006e-06  4.7763638e-06  6.7785259e-06 ...  1.2195385e-05
   9.6727053e-06  5.4881807e-06]
 ...
 [-1.7591364e-06 -1.1900069e-06 -9.7414568e-07 ...  5.9407280e-06
   1.6487014e-06 -5.5727628e-06]
 [-1.3326134e-05 -1.5311971e-05 -1.5794136e-05 ... -1.8902310e-05
  -2.3080174e-05 -2.5325784e-05]
 [-1.1054846e-05 -1.2141288e-05 -1.1806491e-05 ... -7.0285510e-06
  -1.4128658e-05 -1.8750792e-05]]"
154,1,1,2,5,2,3,"[[ 2.7622298e-05  2.2900878e-05  1.9634499e-05 ...  3.5168516e-05
   5.3752432e-05  6.5707376e-05]
 [ 2.5118812e-05  2.4046709e-05  2.4887260e-05 ...  3.0515126e-05
   3.3256296e-05  3.4586687e-05]
 [ 1.0955659e-05  1.1199492e-05  1.1068994e-05 ...  1.3025006e-05
   1.2861855e-05  1.3283484e-05]
 ...
 [-9.3661629e-06 -9.0611920e-06 -9.8466016e-06 ... -4.2132297e-06
  -2.5819804e-06 -3.3668348e-07]
 [-2.0038566e-05 -2.0467280e-05 -1.9707777e-05 ... -5.4224929e-06
  -2.7942356e-06 -2.1320661e-06]
 [-9.1451375e-06 -1.1509197e-05 -1.3993757e-05 ... -4.0379741e-06
  -1.1213393e-06 -3.3659262e-07]]"
155,1,1,2,6,4,1,"[[ 2.71803765e-05  2.54939023e-05  2.39719247e-05 ... -7.44618501e-06
   8.23983464e-06  1.27785934e-05]
 [ 2.78811931e-05  2.96650032e-05  2.90476073e-05 ... -7.72971271e-06
  -1.65534548e-05 -2.35525549e-05]
 [-1.90285311e-06 -1.15878504e-06 -1.59958518e-06 ...  3.34790479e-06
   7.56364898e-06  9.21451283e-06]
 ...
 [-3.21024600e-05 -2.72243906e-05 -1.98780745e-05 ... -1.10630654e-05
  -1.40647689e-05 -1.65852816e-05]
 [-3.03197339e-05 -3.05525755e-05 -2.75728835e-05 ... -1.51258992e-05
  -1.49756443e-05 -1.41217715e-05]
 [-3.07584833e-06 -7.53648646e-06 -1.45904451e-05 ... -1.91084728e-05
  -2.34701420e-05 -2.61276291e-05]]"
156,1,1,2,7,4,1,"[[ 1.0680420e-05  1.0395133e-05  1.0715275e-05 ... -3.5206569e-06
  -1.4859651e-06  5.4114876e-06]
 [ 2.4989306e-05  2.7518494e-05  3.1399279e-05 ...  3.5977533e-05
   3.2593533e-05  2.9411764e-05]
 [ 1.1483260e-05  1.2087728e-05  1.2639819e-05 ...  1.5564407e-05
   9.9715680e-06  1.9229026e-06]
 ...
 [-9.6489121e-06 -9.7466091e-06 -8.0895170e-06 ... -3.8220032e-06
  -1.8185846e-06 -1.7623238e-06]
 [ 5.3723210e-07 -3.0987673e-07  7.5301625e-07 ... -8.9890273e-06
  -1.1292631e-05 -1.2053947e-05]
 [-8.4863095e-06 -7.7049444e-06 -7.8114217e-06 ... -2.7194104e-05
  -2.6520427e-05 -2.3102393e-05]]"
157,1,1,2,8,4,1,"[[ 9.3057843e-06  1.1498469e-05  1.4227263e-05 ...  1.2083280e-05
   1.0638299e-05  9.2110186e-06]
 [ 1.8151060e-05  1.9144796e-05  2.1576521e-05 ...  1.0629351e-05
   5.4309785e-06  1.6713443e-06]
 [ 1.2260166e-05  1.1094372e-05  1.1061794e-05 ... -6.1450951e-06
  -4.8265006e-06 -1.0822298e-06]
 ...
 [-8.2417346e-06 -7.3532315e-06 -9.2745940e-06 ... -1.2411168e-05
  -1.1241743e-05 -1.0469906e-05]
 [-1.0928232e-05 -9.4435609e-06 -7.4985596e-06 ... -1.5681580e-05
  -1.7210521e-05 -1.7180135e-05]
 [-7.4917662e-06 -8.0971467e-06 -7.2737080e-06 ... -1.1552374e-05
  -1.0533240e-05 -9.2410455e-06]]"
158,1,1,2,9,4,1,"[[ 2.16797544e-05  1.95824159e-05  2.12169107e-05 ...  3.01146265e-05
   2.11720926e-05  1.68912229e-05]
 [ 3.08373492e-05  3.14508688e-05  3.01736927e-05 ...  1.37001143e-05
   1.24150029e-05  1.62156630e-05]
 [ 1.29857062e-05  1.18605922e-05  9.00177020e-06 ...  1.21018948e-05
   1.47430446e-05  1.64327848e-05]
 ...
 [-2.36206961e-06 -2.33777337e-06 -5.63088088e-06 ... -1.93248252e-05
  -1.71633910e-05 -1.47749615e-05]
 [-8.68207280e-06 -8.40241864e-06 -7.60247622e-06 ... -1.24881499e-05
  -1.37657325e-05 -1.14584091e-05]
 [-5.06231345e-06 -7.83206178e-06 -8.39108725e-06 ... -4.16846051e-05
  -4.32777488e-05 -2.52417594e-05]]"
159,1,1,2,10,4,1,"[[ 1.5979238e-05  1.0674623e-05  4.4944759e-06 ...  9.5124515e-06
   5.3499580e-06  8.0296350e-06]
 [ 2.8904007e-05  2.5938918e-05  2.2936187e-05 ...  3.0167183e-05
   3.0183874e-05  3.1653206e-05]
 [ 1.3030510e-05  1.2484828e-05  1.3100306e-05 ...  2.9844998e-05
   2.6343065e-05  2.2015147e-05]
 ...
 [-7.0288597e-06 -6.1785950e-06 -5.9821268e-06 ... -1.0927521e-05
  -9.1471284e-06 -6.6038137e-06]
 [-1.0496202e-05 -1.1209311e-05 -1.2656695e-05 ... -4.8184270e-06
  -8.6682803e-06 -1.0199200e-05]
 [-7.6433726e-06 -6.9065600e-06 -6.3743892e-06 ... -3.5102315e-05
  -3.3758708e-05 -3.3233919e-05]]"
160,1,1,2,11,5,4,"[[ 2.0199783e-05  1.5106773e-05  1.0722691e-05 ...  1.8031000e-05
   2.1789676e-05  2.3931256e-05]
 [ 1.8672470e-05  1.5247188e-05  9.7661641e-06 ...  3.3107779e-05
   3.0759129e-05  2.4990568e-05]
 [ 3.8131537e-07  6.7392676e-08 -1.4095914e-07 ...  2.5061310e-05
   2.3917988e-05  2.1374530e-05]
 ...
 [ 3.5859800e-06  4.5786246e-06  4.4484618e-06 ... -4.0899144e-07
  -7.8308392e-07 -4.1202358e-07]
 [-8.1045018e-06 -5.7062211e-06 -3.0329741e-06 ... -4.9483665e-06
  -7.4993090e-06 -9.2783175e-06]
 [-8.5014528e-07 -3.4552357e-07 -9.2029933e-07 ...  7.0390861e-06
   6.3915295e-06  4.1362755e-06]]"
161,1,1,2,12,5,4,"[[ 1.69815721e-05  1.76672274e-05  1.68756069e-05 ... -1.54693298e-05
  -7.57706539e-06  4.32041406e-06]
 [ 2.69606608e-05  2.71977333e-05  2.21334667e-05 ...  2.58556611e-05
   2.81450375e-05  3.10008290e-05]
 [ 5.60285707e-06  7.33303432e-06  8.32886235e-06 ...  1.30888238e-05
   1.25756078e-05  1.09300090e-05]
 ...
 [-1.46699304e-05 -1.06359230e-05 -8.54474729e-06 ... -1.84518922e-05
  -2.22638464e-05 -2.67298237e-05]
 [-7.03936939e-06 -6.27985355e-06 -5.73286934e-06 ... -1.30801382e-05
  -1.64475423e-05 -1.67480612e-05]
 [-8.71825614e-06 -1.07811238e-05 -1.13725255e-05 ...  9.09494793e-06
  -1.51693098e-06 -1.49144707e-05]]"
162,1,1,2,13,5,4,"[[ 9.9446643e-06  1.2127875e-05  1.3528663e-05 ...  8.9166060e-06
   8.3926943e-06  5.5690239e-06]
 [ 1.5891241e-05  1.7299919e-05  1.8317154e-05 ...  1.9737414e-05
   2.1137466e-05  2.1011860e-05]
 [ 2.5436914e-06  4.4608382e-06  6.1625992e-06 ... -3.7757136e-06
  -6.0249154e-06 -8.2517745e-06]
 ...
 [-6.2964396e-06 -9.1339734e-06 -1.2189060e-05 ... -2.4952521e-06
  -3.3572690e-06 -5.3998115e-06]
 [-6.6501534e-06 -9.6748363e-06 -1.2061096e-05 ... -1.3907820e-05
  -1.5106515e-05 -1.6889429e-05]
 [-1.1868309e-05 -1.2968924e-05 -1.1951493e-05 ... -1.4144163e-05
  -1.5094908e-05 -1.5043667e-05]]"
163,1,1,2,14,5,4,"[[ 2.14173178e-05  1.91369109e-05  1.44150899e-05 ...  1.22035453e-05
   1.22648225e-05  1.30214221e-05]
 [ 1.49673415e-05  1.24211820e-05  1.17889904e-05 ...  2.11668830e-05
   1.94967342e-05  1.94445456e-05]
 [ 9.08426955e-06  9.71217924e-06  9.08959100e-06 ...  1.93870146e-05
   1.21238490e-05  4.17153115e-06]
 ...
 [-8.78197807e-06 -9.04618446e-06 -9.89869659e-06 ... -5.50856839e-06
  -5.68059704e-06 -4.54430983e-06]
 [-2.00219729e-05 -1.91464605e-05 -1.60771797e-05 ... -9.28243844e-06
  -1.43448869e-05 -1.39301201e-05]
 [-6.31221064e-06 -7.37243090e-06 -9.18130809e-06 ... -9.26115536e-06
  -1.09484636e-05 -1.16523179e-05]]"
164,1,1,2,15,5,4,"[[ 1.7565097e-05  1.6977003e-05  1.4737021e-05 ...  1.5620068e-05
   1.8794644e-05  2.0512342e-05]
 [ 3.2541619e-05  3.0949319e-05  2.7179218e-05 ...  1.9812678e-05
   1.9131041e-05  2.1367474e-05]
 [ 1.0384521e-05  9.6857566e-06  7.7783043e-06 ... -2.5900805e-05
  -7.0748438e-06  4.3052305e-06]
 ...
 [-9.3862391e-06 -1.0527214e-05 -9.7670054e-06 ... -5.7847255e-06
  -3.6980020e-06 -1.6814454e-06]
 [-1.3542750e-05 -1.2942613e-05 -1.2943445e-05 ... -1.0245615e-05
  -9.7491975e-06 -8.2354782e-06]
 [-1.2094471e-05 -1.0664344e-05 -9.3709268e-06 ... -3.4654349e-06
  -3.5196592e-07 -2.0805885e-07]]"
165,1,1,2,16,6,5,"[[-3.84355053e-06  1.11671689e-05  3.05292670e-05 ...  2.75487146e-05
   2.25283547e-05 -1.06797479e-05]
 [ 2.62465146e-05  2.63459933e-05  1.71088523e-05 ...  2.97919923e-05
   3.30077346e-05  3.38301979e-05]
 [ 3.96675750e-06  3.64364723e-06  5.04154877e-06 ...  2.15088403e-05
   2.13865806e-05  2.00960221e-05]
 ...
 [ 8.50638344e-07  4.19342086e-07 -1.01027877e-06 ... -9.14995417e-06
  -9.42432871e-06 -8.66910432e-06]
 [-1.04516412e-05 -1.28880811e-05 -1.14002214e-05 ... -8.32047590e-06
  -7.72093790e-06 -8.76127797e-06]
 [-2.11243187e-05 -2.05047891e-05 -1.78132523e-05 ... -1.20880195e-05
  -1.46826842e-05 -1.75697405e-05]]"
166,1,1,2,17,6,5,"[[ 5.74387923e-06 -5.84558165e-06 -5.56932582e-06 ...  1.87888436e-05
   2.67588985e-05  3.02210083e-05]
 [ 2.48509059e-05  2.32351940e-05  2.42804908e-05 ...  2.05607303e-05
   2.13609001e-05  1.96759465e-05]
 [ 7.36525089e-06  1.05628651e-05  1.20347831e-05 ...  1.44307078e-05
   1.71139491e-05  1.90960418e-05]
 ...
 [-7.04678177e-06 -5.71526925e-06 -5.17843455e-06 ... -1.25359411e-05
  -1.00778016e-05 -7.50104164e-06]
 [-1.17577501e-05 -1.31527004e-05 -1.37753395e-05 ... -4.88038177e-06
  -4.59497960e-06 -2.79774463e-06]
 [-8.40852590e-06 -9.11939424e-06 -9.45463216e-06 ...  2.33760966e-05
   2.58495693e-05  2.28019235e-05]]"
167,1,1,2,18,6,5,"[[ 1.9606254e-05  1.8072798e-05  1.8256542e-05 ...  2.7482169e-05
  -3.6915706e-05 -8.0400532e-05]
 [ 1.8146915e-05  1.9668936e-05  2.1799655e-05 ...  2.8467390e-05
   2.5628982e-05  2.5323852e-05]
 [ 9.0503117e-06  8.0742029e-06  7.5195157e-06 ...  1.0019553e-05
   1.1756501e-05  1.3079675e-05]
 ...
 [-6.0889806e-06 -1.1642858e-05 -1.4232703e-05 ... -2.2749360e-05
  -2.3648057e-05 -2.2236431e-05]
 [-1.3386981e-05 -1.3022832e-05 -1.1526572e-05 ... -1.6798220e-05
  -1.8369157e-05 -1.9076890e-05]
 [-5.9325944e-06 -8.1575699e-06 -9.7398979e-06 ... -6.3166452e-05
  -8.4787862e-05 -8.7080494e-05]]"
168,1,1,2,19,6,5,"[[ 2.6495713e-05  2.4092866e-05  1.7783334e-05 ...  4.7975558e-05
   3.7001380e-05  1.8279108e-05]
 [ 9.4190527e-06 -1.2202245e-05 -2.7496797e-05 ...  1.2410605e-05
   1.4734112e-05  1.8298921e-05]
 [ 9.3940353e-06  7.1019126e-06  7.5921707e-06 ... -4.3667669e-06
   3.1909306e-07  7.4844970e-06]
 ...
 [-2.7940837e-06 -3.5437822e-06 -5.4748689e-06 ... -1.2057893e-05
  -1.4675420e-05 -1.6425385e-05]
 [-1.0163994e-05 -9.2358459e-06 -9.0417425e-06 ... -2.0834526e-05
  -2.1609407e-05 -1.9800946e-05]
 [-5.1658467e-06 -5.9833860e-06 -8.1815770e-06 ... -9.0605117e-06
  -9.7729662e-06 -1.0440814e-05]]"
169,1,1,2,20,6,5,"[[ 1.6672982e-05  2.0647842e-05  2.1794673e-05 ... -3.3328397e-05
   5.6411909e-06  4.0541949e-05]
 [ 3.1436590e-05  3.2416701e-05  3.2856195e-05 ...  8.0602549e-06
   1.2176589e-05  1.8755316e-05]
 [ 1.1314693e-05  1.0546151e-05  8.6338332e-06 ...  4.7447968e-05
   1.7205000e-05 -3.0065888e-05]
 ...
 [-6.6091602e-06 -2.8430561e-06  6.6516765e-07 ...  5.1687489e-06
   6.1663718e-06  7.9256697e-06]
 [-1.0847439e-05 -9.1150905e-06 -9.6073763e-06 ... -3.8462522e-06
  -4.1347312e-06 -3.7000204e-06]
 [-7.2535668e-06 -6.0302200e-06 -5.0889657e-06 ... -3.7468410e-05
  -3.2674845e-05 -2.3387769e-05]]"
170,1,1,2,21,8,2,"[[ 1.14614759e-05  1.13293645e-05  9.93716185e-06 ...  1.49083116e-05
   1.57487484e-05  1.40978655e-05]
 [ 1.94123968e-05  2.09398095e-05  2.20993807e-05 ...  1.74066845e-05
   1.68370007e-05  1.81076084e-05]
 [ 1.09324865e-05  1.26340619e-05  1.21350531e-05 ...  6.66454071e-06
   5.79714560e-06  6.36029381e-06]
 ...
 [-6.88848877e-06 -7.06094806e-06 -1.01588257e-05 ...  9.04075205e-06
   9.08682159e-06  8.37239349e-06]
 [-1.09062867e-05 -9.87402655e-06 -9.00319174e-06 ... -9.42728911e-06
  -8.55488270e-06 -7.37691198e-06]
 [-1.23083173e-05 -1.53557339e-05 -1.73851113e-05 ... -1.16029541e-05
  -1.17461896e-05 -1.24212866e-05]]"
171,1,1,2,22,8,2,"[[ 1.03911225e-05  1.10906976e-05  1.12141124e-05 ...  1.03966768e-05
   1.17538912e-05  1.60540694e-05]
 [ 1.91275194e-05  1.84363089e-05  1.81930609e-05 ...  1.58578077e-05
   1.86702964e-05  2.57990978e-05]
 [ 1.30767621e-05  1.35533928e-05  1.12975449e-05 ...  6.95697372e-06
   6.39869450e-06  8.43820726e-06]
 ...
 [-1.37519974e-05 -1.18435992e-05 -1.29932650e-05 ... -4.49688469e-06
  -7.94717289e-06 -1.16572310e-05]
 [-1.24476628e-05 -1.49944526e-05 -1.72978562e-05 ... -1.36897579e-05
  -1.53227920e-05 -1.44832575e-05]
 [-7.04399872e-06 -8.39263339e-06 -8.68944335e-06 ...  1.70654573e-06
  -6.81897654e-06 -1.33706071e-05]]"
172,1,1,2,23,8,2,"[[ 7.9977572e-06  9.4155457e-06  9.9036706e-06 ... -1.5092642e-05
  -2.0209289e-05 -1.2645724e-05]
 [ 1.7108332e-05  1.9807421e-05  2.0473681e-05 ...  4.3968680e-06
   4.1085254e-06  9.2982173e-06]
 [ 8.2600263e-06  1.0046756e-05  9.3521303e-06 ...  4.7077674e-06
   2.7973731e-06  1.6088464e-06]
 ...
 [-2.1212247e-06 -4.3597765e-06 -6.8943473e-06 ...  1.0378685e-05
   6.7197543e-06  3.8849284e-06]
 [-8.2587103e-06 -7.9307574e-06 -8.9989762e-06 ... -8.3852465e-06
  -1.0257068e-05 -1.1892238e-05]
 [-5.7869638e-06 -5.7017319e-06 -5.0433300e-06 ...  9.0734193e-06
   4.5223410e-06 -1.7621308e-07]]"
173,1,1,2,24,8,2,"[[ 1.0111536e-05  9.9564413e-06  8.6243217e-06 ...  8.1774278e-06
   1.0797380e-05  1.3808200e-05]
 [ 2.0786068e-05  2.0840320e-05  2.2049515e-05 ...  2.1796090e-05
   2.5039242e-05  3.0589254e-05]
 [ 6.7756605e-06  4.7954413e-06  5.0134754e-06 ...  1.1095719e-05
   9.3516755e-06  9.6699860e-06]
 ...
 [-7.3851847e-06 -7.6827173e-06 -9.2821392e-06 ... -7.9430483e-06
  -7.6122856e-06 -5.8973583e-06]
 [-5.5305431e-06 -4.5445431e-06 -5.2251203e-06 ... -1.2410316e-05
  -1.1391213e-05 -9.5786863e-06]
 [-5.8468081e-06 -7.4997570e-06 -8.8320921e-06 ... -6.1468836e-06
  -7.4249365e-06 -8.3120276e-06]]"
174,1,1,2,25,8,2,"[[ 1.40675875e-05  1.37592715e-05  1.33594294e-05 ...  2.02584306e-05
   1.98034813e-05  1.54626850e-05]
 [ 2.28205954e-05  2.38000757e-05  2.39432266e-05 ...  2.65536382e-05
   2.61898804e-05  2.56218536e-05]
 [ 1.02515123e-05  9.40894006e-06  9.05593970e-06 ...  2.29180223e-05
   2.38522352e-05  2.43370578e-05]
 ...
 [-6.54397263e-06 -6.36248478e-06 -7.43407281e-06 ... -5.29787485e-06
  -6.00091380e-06 -1.02073927e-05]
 [-1.00936386e-05 -1.17200234e-05 -1.20387349e-05 ... -3.83293036e-06
  -5.03942420e-06 -5.84886084e-06]
 [-2.20809852e-06 -2.00756040e-06 -3.61813295e-06 ...  8.47350123e-07
   3.48373135e-07 -1.98007342e-06]]"
175,1,1,2,26,2,5,"[[-1.4415683e-05 -2.2700953e-05 -2.9862407e-05 ... -6.9300884e-05
  -8.7953340e-05 -8.5909640e-05]
 [ 1.5102715e-05  1.1432617e-05  8.7946219e-06 ... -7.6872527e-07
  -4.9582200e-06 -5.5207861e-06]
 [ 2.3499493e-05 -8.3303547e-07 -3.8772920e-05 ...  2.0048312e-05
   2.1646210e-05  2.3553486e-05]
 ...
 [-8.3535861e-06 -8.4311650e-06 -8.3539326e-06 ... -8.3839468e-06
  -5.2805981e-06 -2.2318477e-07]
 [-1.1079380e-05 -9.7394723e-06 -1.0028194e-05 ... -1.1070678e-05
  -1.2719862e-05 -1.3090096e-05]
 [ 2.3592086e-06  5.3867070e-06  9.4419947e-06 ... -1.2899530e-05
  -1.0014276e-05 -7.0812221e-06]]"
176,1,1,2,27,2,5,"[[ 2.9440171e-05  3.3430919e-05  3.6679485e-05 ... -4.6616615e-06
   4.6295833e-07  1.2839605e-05]
 [ 1.7500830e-05  1.8897998e-05  1.9481213e-05 ...  2.2044913e-05
   2.1597700e-05  2.3824359e-05]
 [ 9.7494431e-06  7.4923300e-06  5.8676865e-06 ...  1.2198174e-05
   1.0412834e-05  1.0734850e-05]
 ...
 [-5.2547894e-06 -4.8179718e-06 -1.7593618e-06 ... -3.3877848e-06
  -6.6696957e-06 -7.2779703e-06]
 [-1.3744045e-05 -1.3337321e-05 -1.3072028e-05 ... -7.0130977e-06
  -6.7888950e-06 -5.4508159e-06]
 [-1.3960560e-05 -1.4905723e-05 -1.4562470e-05 ... -7.6042585e-07
   1.2741697e-06  2.7111219e-06]]"
177,1,1,2,28,2,5,"[[ 7.97681787e-06  7.69016242e-06  7.75183798e-06 ...  2.77969848e-05
   4.30847067e-05  4.82784853e-05]
 [ 2.00427185e-05  1.97945028e-05  2.07465127e-05 ...  1.14208378e-05
   9.69793200e-06  1.24840017e-05]
 [ 1.95772627e-05  1.96618530e-05  1.87234909e-05 ... -1.31203542e-05
  -2.21741175e-06  8.58871044e-06]
 ...
 [ 6.36461982e-06  5.64888842e-06  4.50135531e-06 ...  1.02267684e-07
  -1.66155041e-06 -3.55273255e-06]
 [-7.06546825e-06 -7.03397382e-06 -5.57937528e-06 ... -6.60408023e-06
  -5.70853354e-06 -5.70522707e-06]
 [-7.17524063e-06 -6.18208969e-06 -7.13012923e-06 ... -1.08776239e-05
  -1.32084588e-05 -1.73603839e-05]]"
178,1,1,2,29,2,5,"[[ 1.04033306e-05  1.08557397e-05  1.15956955e-05 ...  3.20697836e-05
   3.23086533e-05  4.21016266e-05]
 [ 2.31597514e-05  2.33894843e-05  2.42760652e-05 ...  2.90453681e-05
   2.83247573e-05  2.88908232e-05]
 [ 7.77838795e-06  7.96142467e-06  7.18546471e-06 ...  1.28478569e-05
   1.51176910e-05  1.99244078e-05]
 ...
 [-2.87751345e-06 -3.90682317e-06 -5.41196005e-06 ... -4.65990342e-06
  -8.37971311e-06 -1.18227199e-05]
 [-1.30081980e-05 -1.10953988e-05 -9.09197934e-06 ... -3.75203354e-06
  -6.82854716e-06 -1.03892980e-05]
 [-1.14772092e-05 -1.14993354e-05 -1.11803338e-05 ...  1.49568370e-06
  -3.78661593e-06 -6.08839173e-06]]"
179,1,1,2,30,2,5,"[[ 1.33871299e-05  1.45085451e-05  1.42135441e-05 ...  1.44845626e-05
  -9.12837095e-06 -1.21204166e-05]
 [ 2.12089162e-05  1.93808501e-05  1.73305561e-05 ...  1.57817794e-05
   2.14201809e-05  2.44463408e-05]
 [ 8.86371436e-06  9.07668709e-06  9.05108027e-06 ...  1.31069974e-05
   1.35232904e-05  1.14018094e-05]
 ...
 [-1.62171054e-05 -1.73480948e-05 -1.89009697e-05 ... -9.81720518e-07
  -4.59844614e-06 -6.36045024e-06]
 [-1.67554808e-05 -1.67398484e-05 -1.60123782e-05 ... -4.69463293e-06
  -5.78222398e-06 -6.52361177e-06]
 [-1.16830970e-05 -1.16666151e-05 -1.10887095e-05 ... -5.71174223e-06
  -3.73323383e-06  2.73684009e-06]]"
180,1,1,2,31,4,4,"[[ 5.0502526e-06  5.1693723e-06  7.2801313e-06 ...  1.9236802e-06
   9.8950625e-07  6.5309700e-07]
 [ 2.1815255e-05  2.0042478e-05  2.2543578e-05 ...  2.6511572e-05
   2.4002749e-05  2.2850507e-05]
 [ 1.7799483e-05  2.3505296e-05  2.9064660e-05 ...  7.0094134e-06
   1.1993143e-05  1.4925219e-05]
 ...
 [ 1.0213358e-06 -5.6720813e-07 -2.4835188e-06 ... -4.8038455e-06
  -6.8997269e-06 -8.9442819e-06]
 [-1.7141891e-05 -1.3644832e-05 -9.8695546e-06 ... -1.0629739e-05
  -1.0333985e-05 -1.2558951e-05]
 [ 9.0628100e-06  7.4304658e-06  4.1459271e-06 ... -5.7260062e-05
  -5.6507572e-05 -5.1050218e-05]]"
181,1,1,2,32,4,4,"[[ 5.93002051e-06  4.51969163e-06  5.84423196e-06 ...  2.14133288e-05
   2.03669242e-05  1.59809952e-05]
 [ 1.37574625e-05  1.62586093e-05  1.76784451e-05 ...  1.93911128e-05
   2.15550936e-05  2.29752113e-05]
 [ 2.90098669e-05  2.58338423e-05  2.57893607e-05 ...  9.24353208e-06
   7.39984762e-06  5.36496145e-06]
 ...
 [ 4.55953852e-09  1.77850825e-06 -6.49469087e-07 ... -7.94880543e-06
  -1.01697797e-05 -1.19789138e-05]
 [-2.35265861e-06 -5.09599522e-06 -6.01564716e-06 ... -1.05702229e-05
  -1.31418828e-05 -1.33402345e-05]
 [-2.93503740e-06 -1.65804181e-06 -5.26492204e-06 ...  2.18345758e-06
   1.84632574e-06  7.69072585e-07]]"
182,1,1,2,33,4,4,"[[ 9.50089634e-06  9.07621779e-06  9.94307084e-06 ...  1.09745197e-05
   1.31125098e-05  1.27748663e-05]
 [ 1.59884348e-05  1.36373183e-05  1.18829275e-05 ...  2.04685639e-05
   2.04866355e-05  2.22516555e-05]
 [ 5.47481022e-06  5.71418423e-06  4.51089318e-06 ... -8.99991755e-06
  -3.14657859e-06  6.46410763e-06]
 ...
 [-3.65485971e-06 -3.65603660e-06 -4.84330712e-06 ... -6.52082463e-06
  -7.72282601e-06 -1.11368063e-05]
 [-9.97811640e-06 -9.86579198e-06 -1.00516163e-05 ... -1.44277901e-05
  -1.23990021e-05 -1.14024851e-05]
 [-5.46517367e-06 -6.98679196e-06 -6.14615146e-06 ... -7.34918376e-06
  -9.72440830e-06 -1.42036597e-05]]"
183,1,1,2,34,4,4,"[[ 1.2135618e-05  1.0994947e-05  8.6344762e-06 ...  1.5470229e-06
   2.3661642e-06  2.3336881e-06]
 [ 7.5495554e-06  8.1513226e-06  1.0711747e-05 ...  1.5919062e-05
   1.6454997e-05  1.6740678e-05]
 [ 1.2170300e-05  1.2074816e-05  1.2689907e-05 ... -1.4620943e-05
  -1.3805046e-05 -6.2186909e-06]
 ...
 [-4.4009444e-06 -6.0734146e-06 -6.3834968e-06 ... -2.8438612e-06
  -7.8265850e-07 -6.3534793e-07]
 [-8.3930481e-06 -8.7633516e-06 -1.0402028e-05 ... -6.1131195e-06
  -6.6040516e-06 -7.7888708e-06]
 [-1.3965122e-05 -1.5866963e-05 -1.6878119e-05 ... -1.1689422e-05
  -8.3914329e-06 -7.0561523e-06]]"
184,1,1,2,35,4,4,"[[ 8.93801825e-06  1.17518193e-05  1.29358405e-05 ...  1.63632758e-05
   1.80945717e-05  1.84207238e-05]
 [ 1.92311109e-05  2.07851481e-05  2.30701498e-05 ...  3.37729143e-05
   3.32570453e-05  3.39543367e-05]
 [ 1.28886113e-05  1.47801429e-05  1.56157566e-05 ...  7.98235214e-06
   4.37876133e-06  7.46148316e-07]
 ...
 [-1.12451135e-05 -8.38625510e-06 -7.73002557e-06 ... -4.59378634e-06
  -5.69642134e-06 -5.56868190e-06]
 [-9.73757869e-06 -1.10702822e-05 -1.07885644e-05 ... -1.10747624e-05
  -1.37558873e-05 -1.80804382e-05]
 [-8.70380700e-06 -8.38081178e-06 -6.76957416e-06 ... -7.16081649e-06
  -5.67627603e-06 -6.36885170e-06]]"
185,1,1,2,36,5,2,"[[ 2.0542631e-05  2.3830637e-05  2.5027282e-05 ... -5.8648056e-06
   2.5478469e-06  7.5771350e-06]
 [ 3.6357811e-05  3.1807744e-05  2.7219345e-05 ...  2.2794868e-05
   2.1151081e-05  1.8918106e-05]
 [ 1.4817788e-05  1.4092503e-05  1.5220574e-05 ...  1.1616092e-05
   1.1287282e-05  9.5333062e-06]
 ...
 [-1.4671340e-05 -1.6429407e-05 -1.8772113e-05 ... -7.9420788e-06
  -9.7307229e-06 -8.6996261e-06]
 [-2.4289669e-05 -1.9594137e-05 -1.5410340e-05 ... -1.2990442e-06
  -2.3520104e-06 -4.3165946e-06]
 [ 3.4028344e-06  4.2401184e-06  2.0354046e-06 ...  1.3511046e-05
   8.9620999e-06  1.3267464e-06]]"
186,1,1,2,37,5,2,"[[ 2.58973887e-05  2.29775269e-05  2.08211695e-05 ... -3.06886468e-05
  -3.43472602e-05 -3.25759356e-05]
 [ 2.68860640e-05  2.49686109e-05  2.28583995e-05 ...  2.22675644e-05
   1.79594099e-05  1.50998931e-05]
 [ 1.25436363e-05  1.26705854e-05  1.11329755e-05 ...  9.59098088e-06
   9.72972884e-06  1.00750967e-05]
 ...
 [-5.70877000e-06 -6.59655416e-06 -8.98493545e-06 ... -1.10173869e-05
  -8.01785791e-06 -7.05519096e-06]
 [-1.35286873e-05 -1.55569178e-05 -1.70370004e-05 ... -9.21054107e-06
  -8.76982176e-06 -9.05827164e-06]
 [-4.68262488e-06 -6.12829263e-06 -7.66643097e-06 ... -1.02052409e-05
  -9.12049836e-06 -9.75063995e-06]]"
187,1,1,2,38,5,2,"[[ 7.3818937e-06  9.3576009e-06  8.9211480e-06 ...  1.5934807e-05
   2.0005495e-05  2.6517966e-05]
 [ 2.3825427e-05  2.5218182e-05  2.5731242e-05 ...  3.1564439e-05
   2.5900674e-05  1.9779322e-05]
 [ 1.1077315e-05  1.2676119e-05  1.1647613e-05 ...  9.0958702e-06
   9.9235831e-06  1.0105748e-05]
 ...
